LabVIEW Measurement	
Writer_Version	2
Reader_Version	2
Separator	Tab
Decimal_Separator	,
Multi_Headings	No
X_Columns	Multi
Time_Pref	Absolute
Operator	Alunos
Description	Cont Acq&Graph Voltage Int Clk - LVM71 - Data File
Date	2022/08/18
Time	12:48:34,7886261499425266642
***End_of_Header***	
	
Channels	1	
Samples	1000	
Date	2022/08/18	
Time	12:48:34,7886261499425266642	
Y_Unit_Label	Volts	
X_Dimension	Time	
X0	0,0000000000000000E+0	
Delta_X	0,001000	
***End_of_Header***		
X_Value	Dev1/ai0	Comment
0,000000	0,604685
0,001000	0,633947
0,002000	0,662880
0,003000	0,681291
0,004000	0,684908
0,005000	0,681620
0,006000	0,659921
0,007000	0,632632
0,008000	0,602055
0,009000	0,571149
0,010000	0,544847
0,011000	0,520188
0,012000	0,511969
0,013000	0,508023
0,014000	0,516900
0,015000	0,534655
0,016000	0,556683
0,017000	0,582986
0,018000	0,613234
0,019000	0,642495
0,020000	0,653016
0,021000	0,656304
0,022000	0,647427
0,023000	0,623097
0,024000	0,594822
0,025000	0,563259
0,026000	0,535641
0,027000	0,509010
0,028000	0,489940
0,029000	0,483365
0,030000	0,483036
0,031000	0,496845
0,032000	0,515257
0,033000	0,538929
0,034000	0,567533
0,035000	0,598438
0,036000	0,623426
0,037000	0,630001
0,038000	0,631974
0,039000	0,615206
0,040000	0,588575
0,041000	0,559313
0,042000	0,528737
0,043000	0,503092
0,044000	0,476131
0,045000	0,464295
0,046000	0,458377
0,047000	0,463638
0,048000	0,479091
0,049000	0,500133
0,050000	0,525449
0,051000	0,554710
0,052000	0,584958
0,053000	0,604028
0,054000	0,608302
0,055000	0,605343
0,056000	0,584301
0,057000	0,556683
0,058000	0,527421
0,059000	0,497174
0,060000	0,470213
0,061000	0,447527
0,062000	0,438979
0,063000	0,435363
0,064000	0,445884
0,065000	0,462980
0,066000	0,485666
0,067000	0,512955
0,068000	0,542874
0,069000	0,572793
0,070000	0,584958
0,071000	0,586931
0,072000	0,577725
0,073000	0,553724
0,074000	0,525449
0,075000	0,494543
0,076000	0,466268
0,077000	0,439637
0,078000	0,421882
0,079000	0,416622
0,080000	0,416293
0,081000	0,429444
0,082000	0,450158
0,083000	0,473830
0,084000	0,502763
0,085000	0,533340
0,086000	0,558656
0,087000	0,564245
0,088000	0,566218
0,089000	0,549450
0,090000	0,524134
0,091000	0,495201
0,092000	0,464624
0,093000	0,437993
0,094000	0,411033
0,095000	0,399854
0,096000	0,394922
0,097000	0,399854
0,098000	0,415964
0,099000	0,438322
0,100000	0,462651
0,101000	0,493228
0,102000	0,524134
0,103000	0,541559
0,104000	0,546162
0,105000	0,542545
0,106000	0,521175
0,107000	0,494543
0,108000	0,464624
0,109000	0,434705
0,110000	0,408731
0,111000	0,385716
0,112000	0,377826
0,113000	0,374538
0,114000	0,384730
0,115000	0,403142
0,116000	0,426157
0,117000	0,452459
0,118000	0,483036
0,119000	0,512955
0,120000	0,522490
0,121000	0,527093
0,122000	0,517229
0,123000	0,493228
0,124000	0,463967
0,125000	0,433719
0,126000	0,406430
0,127000	0,379798
0,128000	0,362044
0,129000	0,356126
0,130000	0,357112
0,131000	0,371250
0,132000	0,391635
0,133000	0,414978
0,134000	0,444568
0,135000	0,475145
0,136000	0,499475
0,137000	0,505393
0,138000	0,507695
0,139000	0,489940
0,140000	0,464624
0,141000	0,435363
0,142000	0,404786
0,143000	0,378812
0,144000	0,352181
0,145000	0,341988
0,146000	0,336728
0,147000	0,341988
0,148000	0,359085
0,149000	0,379470
0,150000	0,406101
0,151000	0,436020
0,152000	0,466268
0,153000	0,483693
0,154000	0,488296
0,155000	0,485009
0,156000	0,463638
0,157000	0,437006
0,158000	0,406430
0,159000	0,376511
0,160000	0,350866
0,161000	0,328180
0,162000	0,321275
0,163000	0,317330
0,164000	0,328837
0,165000	0,347249
0,166000	0,369935
0,167000	0,397224
0,168000	0,427143
0,169000	0,456733
0,170000	0,466597
0,171000	0,470213
0,172000	0,460350
0,173000	0,436678
0,174000	0,407087
0,175000	0,376511
0,176000	0,349222
0,177000	0,322919
0,178000	0,306151
0,179000	0,300891
0,180000	0,301877
0,181000	0,315686
0,182000	0,335742
0,183000	0,359414
0,184000	0,388675
0,185000	0,420239
0,186000	0,444568
0,187000	0,449500
0,188000	0,452459
0,189000	0,434376
0,190000	0,408402
0,191000	0,378483
0,192000	0,348893
0,193000	0,322919
0,194000	0,296288
0,195000	0,286096
0,196000	0,281164
0,197000	0,287082
0,198000	0,303850
0,199000	0,325221
0,200000	0,350866
0,201000	0,380456
0,202000	0,411033
0,203000	0,428458
0,204000	0,432403
0,205000	0,429444
0,206000	0,406430
0,207000	0,379141
0,208000	0,349879
0,209000	0,319631
0,210000	0,293658
0,211000	0,272615
0,212000	0,265711
0,213000	0,261766
0,214000	0,274588
0,215000	0,292014
0,216000	0,313713
0,217000	0,342975
0,218000	0,373223
0,219000	0,402156
0,220000	0,411690
0,221000	0,416622
0,222000	0,405443
0,223000	0,381114
0,224000	0,353496
0,225000	0,322262
0,226000	0,294973
0,227000	0,268341
0,228000	0,252889
0,229000	0,246313
0,230000	0,247628
0,231000	0,262423
0,232000	0,281821
0,233000	0,307138
0,234000	0,336728
0,235000	0,367305
0,236000	0,391306
0,237000	0,396237
0,238000	0,398868
0,239000	0,379798
0,240000	0,354153
0,241000	0,324563
0,242000	0,295301
0,243000	0,268999
0,244000	0,243025
0,245000	0,232175
0,246000	0,227572
0,247000	0,233819
0,248000	0,251573
0,249000	0,273602
0,250000	0,298589
0,251000	0,329495
0,252000	0,359085
0,253000	0,374867
0,254000	0,379141
0,255000	0,375853
0,256000	0,353496
0,257000	0,326207
0,258000	0,296617
0,259000	0,267684
0,260000	0,240724
0,261000	0,219682
0,262000	0,212120
0,263000	0,210147
0,264000	0,222641
0,265000	0,240395
0,266000	0,264067
0,267000	0,291356
0,268000	0,321604
0,269000	0,350866
0,270000	0,360729
0,271000	0,363359
0,272000	0,352838
0,273000	0,328180
0,274000	0,299576
0,275000	0,269328
0,276000	0,241710
0,277000	0,215079
0,278000	0,198640
0,279000	0,193708
0,280000	0,195681
0,281000	0,210805
0,282000	0,230860
0,283000	0,255190
0,284000	0,284452
0,285000	0,316343
0,286000	0,339358
0,287000	0,345276
0,288000	0,346591
0,289000	0,327522
0,290000	0,301220
0,291000	0,271629
0,292000	0,242368
0,293000	0,216394
0,294000	0,190420
0,295000	0,184831
0,296000	0,183187
0,297000	0,190420
0,298000	0,206202
0,299000	0,228559
0,300000	0,255519
0,301000	0,285438
0,302000	0,316343
0,303000	0,332783
0,304000	0,337057
0,305000	0,331796
0,306000	0,305165
0,307000	0,284123
0,308000	0,252560
0,309000	0,224613
0,310000	0,199297
0,311000	0,168720
0,312000	0,162474
0,313000	0,160830
0,314000	0,169049
0,315000	0,187790
0,316000	0,211133
0,317000	0,238751
0,318000	0,269656
0,319000	0,298589
0,320000	0,306809
0,321000	0,312727
0,322000	0,300233
0,323000	0,275903
0,324000	0,247299
0,325000	0,216065
0,326000	0,188776
0,327000	0,163131
0,328000	0,147678
0,329000	0,142089
0,330000	0,144062
0,331000	0,159186
0,332000	0,179899
0,333000	0,204886
0,334000	0,233162
0,335000	0,265054
0,336000	0,288068
0,337000	0,293329
0,338000	0,293658
0,339000	0,275246
0,340000	0,248943
0,341000	0,219682
0,342000	0,189762
0,343000	0,163131
0,344000	0,138144
0,345000	0,128938
0,346000	0,123677
0,347000	0,131239
0,348000	0,148336
0,349000	0,170693
0,350000	0,197324
0,351000	0,227244
0,352000	0,257163
0,353000	0,273931
0,354000	0,277876
0,355000	0,272615
0,356000	0,249272
0,357000	0,222641
0,358000	0,192393
0,359000	0,162474
0,360000	0,136829
0,361000	0,116444
0,362000	0,109869
0,363000	0,107567
0,364000	0,119732
0,365000	0,138473
0,366000	0,162802
0,367000	0,189762
0,368000	0,220668
0,369000	0,249272
0,370000	0,259135
0,371000	0,261108
0,372000	0,248614
0,373000	0,223627
0,374000	0,195023
0,375000	0,165104
0,376000	0,138801
0,377000	0,111841
0,378000	0,097046
0,379000	0,090799
0,380000	0,094416
0,381000	0,109211
0,382000	0,130253
0,383000	0,154912
0,384000	0,183844
0,385000	0,215736
0,386000	0,237765
0,387000	0,242696
0,388000	0,243025
0,389000	0,223956
0,390000	0,197653
0,391000	0,169049
0,392000	0,138473
0,393000	0,113156
0,394000	0,087511
0,395000	0,077977
0,396000	0,073374
0,397000	0,081593
0,398000	0,099019
0,399000	0,120390
0,400000	0,147350
0,401000	0,177926
0,402000	0,208174
0,403000	0,222969
0,404000	0,227244
0,405000	0,221983
0,406000	0,198640
0,407000	0,171351
0,408000	0,140445
0,409000	0,112828
0,410000	0,086525
0,411000	0,065483
0,412000	0,058907
0,413000	0,057592
0,414000	0,069757
0,415000	0,089155
0,416000	0,112170
0,417000	0,140445
0,418000	0,172337
0,419000	0,199955
0,420000	0,207517
0,421000	0,211462
0,422000	0,197982
0,423000	0,173323
0,424000	0,144719
0,425000	0,113814
0,426000	0,087840
0,427000	0,061538
0,428000	0,046414
0,429000	0,040824
0,430000	0,044441
0,431000	0,059236
0,432000	0,080607
0,433000	0,105594
0,434000	0,134856
0,435000	0,166090
0,436000	0,188119
0,437000	0,193379
0,438000	0,193050
0,439000	0,173981
0,440000	0,147678
0,441000	0,118088
0,442000	0,088169
0,443000	0,063510
0,444000	0,037537
0,445000	0,029317
0,446000	0,025043
0,447000	0,032605
0,448000	0,050359
0,449000	0,072059
0,450000	0,099347
0,451000	0,129267
0,452000	0,159515
0,453000	0,173981
0,454000	0,178584
0,455000	0,172008
0,456000	0,149651
0,457000	0,121376
0,458000	0,091128
0,459000	0,062853
0,460000	0,036879
0,461000	0,015837
0,462000	0,010576
0,463000	0,008933
0,464000	0,021426
0,465000	0,040496
0,466000	0,065154
0,467000	0,092443
0,468000	0,123349
0,469000	0,150966
0,470000	0,158528
0,471000	0,162474
0,472000	0,148007
0,473000	0,123677
0,474000	0,094745
0,475000	0,064497
0,476000	0,038194
0,477000	0,011892
0,478000	-0,001588
0,479000	-0,007835
0,480000	-0,004548
0,481000	0,010576
0,482000	0,031947
0,483000	0,056935
0,484000	0,086525
0,485000	0,117430
0,486000	0,139459
0,487000	0,143733
0,488000	0,143733
0,489000	0,124335
0,490000	0,098032
0,491000	0,068442
0,492000	0,038523
0,493000	0,012220
0,494000	-0,012110
0,495000	-0,020329
0,496000	-0,024274
0,497000	-0,016384
0,498000	0,001699
0,499000	0,024056
0,500000	0,050688
0,501000	0,081593
0,502000	0,111512
0,503000	0,125321
0,504000	0,129267
0,505000	0,122691
0,506000	0,099676
0,507000	0,071072
0,508000	0,041482
0,509000	0,013535
0,510000	-0,013096
0,511000	-0,032494
0,512000	-0,038412
0,513000	-0,040056
0,514000	-0,027233
0,515000	-0,006849
0,516000	0,015179
0,517000	0,045427
0,518000	0,075346
0,519000	0,102964
0,520000	0,111512
0,521000	0,113814
0,522000	0,099019
0,523000	0,074689
0,524000	0,046085
0,525000	0,014522
0,526000	-0,011123
0,527000	-0,037426
0,528000	-0,050906
0,529000	-0,056495
0,530000	-0,053207
0,531000	-0,037097
0,532000	-0,015726
0,533000	0,008604
0,534000	0,037865
0,535000	0,069757
0,536000	0,090470
0,537000	0,096060
0,538000	0,094745
0,539000	0,074689
0,540000	0,049044
0,541000	0,019125
0,542000	-0,010794
0,543000	-0,037097
0,544000	-0,060769
0,545000	-0,068660
0,546000	-0,073263
0,547000	-0,064715
0,548000	-0,046632
0,549000	-0,023946
0,550000	0,002686
0,551000	0,032605
0,552000	0,063181
0,553000	0,076662
0,554000	0,080607
0,555000	0,073703
0,556000	0,050359
0,557000	0,022741
0,558000	-0,007178
0,559000	-0,036111
0,560000	-0,062084
0,561000	-0,080825
0,562000	-0,086743
0,563000	-0,087729
0,564000	-0,074907
0,565000	-0,055509
0,566000	-0,031836
0,567000	-0,003232
0,568000	0,028331
0,569000	0,055291
0,570000	0,062853
0,571000	0,064168
0,572000	0,050359
0,573000	0,025372
0,574000	-0,003232
0,575000	-0,033480
0,576000	-0,060112
0,577000	-0,085757
0,578000	-0,098908
0,579000	-0,104497
0,580000	-0,100552
0,581000	-0,084770
0,582000	-0,063071
0,583000	-0,038741
0,584000	-0,008822
0,585000	0,023070
0,586000	0,043455
0,587000	0,048058
0,588000	0,046414
0,589000	0,027016
0,590000	5,541058E-5
0,591000	-0,029206
0,592000	-0,059454
0,593000	-0,085428
0,594000	-0,109429
0,595000	-0,117648
0,596000	-0,121594
0,597000	-0,111730
0,598000	-0,093976
0,599000	-0,070633
0,600000	-0,044988
0,601000	-0,013753
0,602000	0,015837
0,603000	0,028988
0,604000	0,032605
0,605000	0,024714
0,606000	0,002028
0,607000	-0,025918
0,608000	-0,056495
0,609000	-0,083784
0,610000	-0,110744
0,611000	-0,128827
0,612000	-0,135403
0,613000	-0,136060
0,614000	-0,122580
0,615000	-0,102524
0,616000	-0,079181
0,617000	-0,051235
0,618000	-0,020329
0,619000	0,007289
0,620000	0,014522
0,621000	0,016494
0,622000	0,001699
0,623000	-0,023288
0,624000	-0,051892
0,625000	-0,082469
0,626000	-0,108771
0,627000	-0,135403
0,628000	-0,147568
0,629000	-0,152828
0,630000	-0,148225
0,631000	-0,132115
0,632000	-0,110744
0,633000	-0,085757
0,634000	-0,056166
0,635000	-0,025261
0,636000	-0,004876
0,637000	-0,000273
0,638000	-0,002246
0,639000	-0,022302
0,640000	-0,048933
0,641000	-0,078523
0,642000	-0,108771
0,643000	-0,134088
0,644000	-0,156773
0,645000	-0,165651
0,646000	-0,168938
0,647000	-0,159075
0,648000	-0,140663
0,649000	-0,118635
0,650000	-0,091017
0,651000	-0,061098
0,652000	-0,031179
0,653000	-0,019014
0,654000	-0,013753
0,655000	-0,022959
0,656000	-0,045645
0,657000	-0,074249
0,658000	-0,104826
0,659000	-0,131786
0,660000	-0,158089
0,661000	-0,176500
0,662000	-0,183076
0,663000	-0,183076
0,664000	-0,169267
0,665000	-0,149540
0,666000	-0,125868
0,667000	-0,097264
0,668000	-0,065701
0,669000	-0,039727
0,670000	-0,033480
0,671000	-0,029864
0,672000	-0,045974
0,673000	-0,070633
0,674000	-0,100223
0,675000	-0,130142
0,676000	-0,156773
0,677000	-0,183076
0,678000	-0,195241
0,679000	-0,200830
0,680000	-0,196556
0,681000	-0,180117
0,682000	-0,158417
0,683000	-0,133759
0,684000	-0,103840
0,685000	-0,072934
0,686000	-0,052550
0,687000	-0,048275
0,688000	-0,049591
0,689000	-0,070304
0,690000	-0,097593
0,691000	-0,126854
0,692000	-0,155458
0,693000	-0,181432
0,694000	-0,205104
0,695000	-0,212338
0,696000	-0,216612
0,697000	-0,206419
0,698000	-0,187679
0,699000	-0,164993
0,700000	-0,137704
0,701000	-0,107785
0,702000	-0,078195
0,703000	-0,066358
0,704000	-0,061098
0,705000	-0,070304
0,706000	-0,093976
0,707000	-0,122580
0,708000	-0,152170
0,709000	-0,179459
0,710000	-0,206091
0,711000	-0,224831
0,712000	-0,230749
0,713000	-0,229763
0,714000	-0,215297
0,715000	-0,195898
0,716000	-0,172226
0,717000	-0,142965
0,718000	-0,111402
0,719000	-0,085099
0,720000	-0,079181
0,721000	-0,076879
0,722000	-0,093319
0,723000	-0,117977
0,724000	-0,147896
0,725000	-0,178144
0,726000	-0,204447
0,727000	-0,230421
0,728000	-0,241928
0,729000	-0,246860
0,730000	-0,241928
0,731000	-0,224174
0,732000	-0,204447
0,733000	-0,179131
0,734000	-0,148883
0,735000	-0,116991
0,736000	-0,098579
0,737000	-0,092990
0,738000	-0,096278
0,739000	-0,115676
0,740000	-0,142965
0,741000	-0,172555
0,742000	-0,202474
0,743000	-0,228448
0,744000	-0,251134
0,745000	-0,258367
0,746000	-0,261984
0,747000	-0,251463
0,748000	-0,233708
0,749000	-0,211022
0,750000	-0,183405
0,751000	-0,153157
0,752000	-0,123566
0,753000	-0,112059
0,754000	-0,107785
0,755000	-0,117648
0,756000	-0,140663
0,757000	-0,168610
0,758000	-0,199186
0,759000	-0,226804
0,760000	-0,253106
0,761000	-0,270532
0,762000	-0,276121
0,763000	-0,276121
0,764000	-0,262312
0,765000	-0,241270
0,766000	-0,218256
0,767000	-0,188665
0,768000	-0,157431
0,769000	-0,132772
0,770000	-0,121265
0,771000	-0,117320
0,772000	-0,133101
0,773000	-0,159075
0,774000	-0,188008
0,775000	-0,217598
0,776000	-0,242914
0,777000	-0,269546
0,778000	-0,280395
0,779000	-0,284341
0,780000	-0,280395
0,781000	-0,267244
0,782000	-0,239955
0,783000	-0,215954
0,784000	-0,186693
0,785000	-0,156445
0,786000	-0,143293
0,787000	-0,139348
0,788000	-0,140663
0,789000	-0,165651
0,790000	-0,191953
0,791000	-0,222530
0,792000	-0,251463
0,793000	-0,277436
0,794000	-0,300451
0,795000	-0,308013
0,796000	-0,309328
0,797000	-0,298807
0,798000	-0,280067
0,799000	-0,257052
0,800000	-0,230092
0,801000	-0,199515
0,802000	-0,169596
0,803000	-0,159404
0,804000	-0,154472
0,805000	-0,164007
0,806000	-0,188336
0,807000	-0,216612
0,808000	-0,246531
0,809000	-0,274477
0,810000	-0,300122
0,811000	-0,317548
0,812000	-0,322808
0,813000	-0,322151
0,814000	-0,308013
0,815000	-0,288615
0,816000	-0,264285
0,817000	-0,235023
0,818000	-0,203132
0,819000	-0,179131
0,820000	-0,172226
0,821000	-0,169267
0,822000	-0,187679
0,823000	-0,212009
0,824000	-0,242257
0,825000	-0,272505
0,826000	-0,297821
0,827000	-0,324123
0,828000	-0,334973
0,829000	-0,339905
0,830000	-0,333987
0,831000	-0,317219
0,832000	-0,295519
0,833000	-0,270532
0,834000	-0,238969
0,835000	-0,209050
0,836000	-0,189980
0,837000	-0,187350
0,838000	-0,189652
0,839000	-0,210694
0,840000	-0,237654
0,841000	-0,267573
0,842000	-0,296177
0,843000	-0,322479
0,844000	-0,345823
0,845000	-0,353056
0,846000	-0,355686
0,847000	-0,344508
0,848000	-0,325438
0,849000	-0,302095
0,850000	-0,275464
0,851000	-0,245216
0,852000	-0,215297
0,853000	-0,204447
0,854000	-0,201159
0,855000	-0,211022
0,856000	-0,234695
0,857000	-0,263299
0,858000	-0,293218
0,859000	-0,321164
0,860000	-0,346480
0,861000	-0,363906
0,862000	-0,369166
0,863000	-0,368180
0,864000	-0,353714
0,865000	-0,333329
0,866000	-0,309328
0,867000	-0,280395
0,868000	-0,248503
0,869000	-0,224174
0,870000	-0,218256
0,871000	-0,215954
0,872000	-0,234366
0,873000	-0,259682
0,874000	-0,289272
0,875000	-0,318534
0,876000	-0,344508
0,877000	-0,370481
0,878000	-0,381331
0,879000	-0,384948
0,880000	-0,380016
0,881000	-0,363577
0,882000	-0,340891
0,883000	-0,314589
0,884000	-0,284998
0,885000	-0,254093
0,886000	-0,236996
0,887000	-0,232393
0,888000	-0,236010
0,889000	-0,257381
0,890000	-0,285656
0,891000	-0,314589
0,892000	-0,343521
0,893000	-0,369824
0,894000	-0,391523
0,895000	-0,398428
0,896000	-0,402044
0,897000	-0,389880
0,898000	-0,371139
0,899000	-0,348453
0,900000	-0,321164
0,901000	-0,290259
0,902000	-0,260668
0,903000	-0,250805
0,904000	-0,246860
0,905000	-0,257052
0,906000	-0,281710
0,907000	-0,309986
0,908000	-0,339905
0,909000	-0,367522
0,910000	-0,393825
0,911000	-0,409935
0,912000	-0,415196
0,913000	-0,414209
0,914000	-0,399085
0,915000	-0,378701
0,916000	-0,354371
0,917000	-0,325438
0,918000	-0,294204
0,919000	-0,270532
0,920000	-0,262641
0,921000	-0,262641
0,922000	-0,280724
0,923000	-0,306040
0,924000	-0,335302
0,925000	-0,364563
0,926000	-0,390866
0,927000	-0,416182
0,928000	-0,427361
0,929000	-0,431635
0,930000	-0,424402
0,931000	-0,407634
0,932000	-0,385605
0,933000	-0,360289
0,934000	-0,329713
0,935000	-0,299136
0,936000	-0,282368
0,937000	-0,277436
0,938000	-0,281710
0,939000	-0,303410
0,940000	-0,330699
0,941000	-0,361276
0,942000	-0,389551
0,943000	-0,415524
0,944000	-0,437224
0,945000	-0,444128
0,946000	-0,447088
0,947000	-0,434923
0,948000	-0,416182
0,949000	-0,392510
0,950000	-0,365221
0,951000	-0,334315
0,952000	-0,306040
0,953000	-0,295519
0,954000	-0,293218
0,955000	-0,303739
0,956000	-0,327740
0,957000	-0,356344
0,958000	-0,386263
0,959000	-0,413552
0,960000	-0,439526
0,961000	-0,454649
0,962000	-0,461554
0,963000	-0,459252
0,964000	-0,444457
0,965000	-0,424402
0,966000	-0,399414
0,967000	-0,370481
0,968000	-0,338261
0,969000	-0,315246
0,970000	-0,308671
0,971000	-0,307684
0,972000	-0,326096
0,973000	-0,351412
0,974000	-0,381331
0,975000	-0,410922
0,976000	-0,436895
0,977000	-0,462540
0,978000	-0,472404
0,979000	-0,477664
0,980000	-0,470102
0,981000	-0,453006
0,982000	-0,431635
0,983000	-0,404346
0,984000	-0,374427
0,985000	-0,343850
0,986000	-0,327411
0,987000	-0,323794
0,988000	-0,327082
0,989000	-0,349768
0,990000	-0,377386
0,991000	-0,406647
0,992000	-0,435580
0,993000	-0,461225
0,994000	-0,483253
0,995000	-0,489172
0,996000	-0,492131
0,997000	-0,480294
0,998000	-0,460896
0,999000	-0,438539
1,000000	-0,410264
1,001000	-0,379359
1,002000	-0,350426
1,003000	-0,339905
1,004000	-0,337603
1,005000	-0,349439
1,006000	-0,373769
1,007000	-0,401387
1,008000	-0,432621
1,009000	-0,458924
1,010000	-0,484897
1,011000	-0,501665
1,012000	-0,506268
1,013000	-0,504624
1,014000	-0,489500
1,015000	-0,467801
1,016000	-0,444128
1,017000	-0,415196
1,018000	-0,382975
1,019000	-0,360947
1,020000	-0,355029
1,021000	-0,354042
1,022000	-0,372454
1,023000	-0,398428
1,024000	-0,427361
1,025000	-0,456622
1,026000	-0,482596
1,027000	-0,507583
1,028000	-0,517776
1,029000	-0,522378
1,030000	-0,515474
1,031000	-0,498049
1,032000	-0,476020
1,033000	-0,449060
1,034000	-0,418484
1,035000	-0,388893
1,036000	-0,373112
1,037000	-0,369166
1,038000	-0,373112
1,039000	-0,395469
1,040000	-0,422758
1,041000	-0,452677
1,042000	-0,481281
1,043000	-0,507912
1,044000	-0,528954
1,045000	-0,534872
1,046000	-0,537174
1,047000	-0,525009
1,048000	-0,506597
1,049000	-0,481938
1,050000	-0,454649
1,051000	-0,423086
1,052000	-0,395469
1,053000	-0,385934
1,054000	-0,383304
1,055000	-0,394811
1,056000	-0,419470
1,057000	-0,448074
1,058000	-0,478322
1,059000	-0,505282
1,060000	-0,531256
1,061000	-0,545722
1,062000	-0,550325
1,063000	-0,549667
1,064000	-0,533886
1,065000	-0,512844
1,066000	-0,487856
1,067000	-0,458595
1,068000	-0,427361
1,069000	-0,405003
1,070000	-0,398428
1,071000	-0,399085
1,072000	-0,417497
1,073000	-0,443471
1,074000	-0,473061
1,075000	-0,502980
1,076000	-0,527968
1,077000	-0,553941
1,078000	-0,562819
1,079000	-0,567093
1,080000	-0,559860
1,081000	-0,541777
1,082000	-0,519419
1,083000	-0,493446
1,084000	-0,463198
1,085000	-0,432950
1,086000	-0,417497
1,087000	-0,413223
1,088000	-0,418484
1,089000	-0,441169
1,090000	-0,468458
1,091000	-0,498706
1,092000	-0,526981
1,093000	-0,552955
1,094000	-0,573340
1,095000	-0,579258
1,096000	-0,581559
1,097000	-0,569394
1,098000	-0,550654
1,099000	-0,526324
1,100000	-0,499035
1,101000	-0,467143
1,102000	-0,439526
1,103000	-0,430977
1,104000	-0,427689
1,105000	-0,440183
1,106000	-0,465170
1,107000	-0,493774
1,108000	-0,523365
1,109000	-0,550982
1,110000	-0,576956
1,111000	-0,591423
1,112000	-0,596683
1,113000	-0,594053
1,114000	-0,577942
1,115000	-0,557558
1,116000	-0,532242
1,117000	-0,503309
1,118000	-0,471746
1,119000	-0,450047
1,120000	-0,444457
1,121000	-0,444128
1,122000	-0,463198
1,123000	-0,488843
1,124000	-0,518433
1,125000	-0,548023
1,126000	-0,573668
1,127000	-0,598985
1,128000	-0,608190
1,129000	-0,612136
1,130000	-0,603916
1,131000	-0,586491
1,132000	-0,564462
1,133000	-0,536845
1,134000	-0,506597
1,135000	-0,476020
1,136000	-0,461225
1,137000	-0,457280
1,138000	-0,463527
1,139000	-0,485555
1,140000	-0,513173
1,141000	-0,543749
1,142000	-0,571696
1,143000	-0,597012
1,144000	-0,618054
1,145000	-0,623972
1,146000	-0,625616
1,147000	-0,612793
1,148000	-0,593724
1,149000	-0,570381
1,150000	-0,541777
1,151000	-0,510542
1,152000	-0,483582
1,153000	-0,474376
1,154000	-0,472732
1,155000	-0,485884
1,156000	-0,510214
1,157000	-0,539804
1,158000	-0,570052
1,159000	-0,595697
1,160000	-0,622328
1,161000	-0,635808
1,162000	-0,641069
1,163000	-0,638438
1,164000	-0,622986
1,165000	-0,601286
1,166000	-0,578271
1,167000	-0,546708
1,168000	-0,515145
1,169000	-0,493446
1,170000	-0,486870
1,171000	-0,488185
1,172000	-0,507255
1,173000	-0,533228
1,174000	-0,563147
1,175000	-0,593066
1,176000	-0,618711
1,177000	-0,643699
1,178000	-0,652247
1,179000	-0,656192
1,180000	-0,647644
1,181000	-0,630548
1,182000	-0,607533
1,183000	-0,580573
1,184000	-0,550654
1,185000	-0,520406
1,186000	-0,505939
1,187000	-0,501665
1,188000	-0,508898
1,189000	-0,531256
1,190000	-0,558216
1,191000	-0,589121
1,192000	-0,616739
1,193000	-0,643370
1,194000	-0,663754
1,195000	-0,668686
1,196000	-0,670001
1,197000	-0,657179
1,198000	-0,637781
1,199000	-0,615095
1,200000	-0,586491
1,201000	-0,554928
1,202000	-0,528297
1,203000	-0,519091
1,204000	-0,516460
1,205000	-0,530269
1,206000	-0,555257
1,207000	-0,583861
1,208000	-0,614108
1,209000	-0,639753
1,210000	-0,666056
1,211000	-0,680193
1,212000	-0,684796
1,213000	-0,681837
1,214000	-0,665070
1,215000	-0,643699
1,216000	-0,619040
1,217000	-0,589121
1,218000	-0,558544
1,219000	-0,537502
1,220000	-0,532899
1,221000	-0,532242
1,222000	-0,552298
1,223000	-0,578271
1,224000	-0,607862
1,225000	-0,637781
1,226000	-0,662439
1,227000	-0,687427
1,228000	-0,695975
1,229000	-0,699592
1,230000	-0,690714
1,231000	-0,672960
1,232000	-0,650932
1,233000	-0,623972
1,234000	-0,593724
1,235000	-0,563805
1,236000	-0,549996
1,237000	-0,546051
1,238000	-0,552955
1,239000	-0,575312
1,240000	-0,602930
1,241000	-0,633507
1,242000	-0,660795
1,243000	-0,687098
1,244000	-0,706496
1,245000	-0,708469
1,246000	-0,706496
1,247000	-0,693674
1,248000	-0,674275
1,249000	-0,651918
1,250000	-0,621999
1,251000	-0,590436
1,252000	-0,563147
1,253000	-0,555914
1,254000	-0,551640
1,255000	-0,567093
1,256000	-0,597012
1,257000	-0,620027
1,258000	-0,650603
1,259000	-0,674275
1,260000	-0,700907
1,261000	-0,713400
1,262000	-0,728196
1,263000	-0,724250
1,264000	-0,708140
1,265000	-0,690714
1,266000	-0,665398
1,267000	-0,635479
1,268000	-0,604903
1,269000	-0,583532
1,270000	-0,578929
1,271000	-0,578929
1,272000	-0,597669
1,273000	-0,623643
1,274000	-0,652905
1,275000	-0,682824
1,276000	-0,708469
1,277000	-0,732141
1,278000	-0,741676
1,279000	-0,744963
1,280000	-0,736086
1,281000	-0,717346
1,282000	-0,694660
1,283000	-0,667700
1,284000	-0,637781
1,285000	-0,607204
1,286000	-0,594053
1,287000	-0,590107
1,288000	-0,597341
1,289000	-0,620355
1,290000	-0,648302
1,291000	-0,677892
1,292000	-0,706496
1,293000	-0,732141
1,294000	-0,751539
1,295000	-0,757128
1,296000	-0,757786
1,297000	-0,744635
1,298000	-0,724579
1,299000	-0,701235
1,300000	-0,672632
1,301000	-0,641726
1,302000	-0,614766
1,303000	-0,607533
1,304000	-0,603916
1,305000	-0,619369
1,306000	-0,645014
1,307000	-0,673289
1,308000	-0,703866
1,309000	-0,728853
1,310000	-0,756471
1,311000	-0,768636
1,312000	-0,773567
1,313000	-0,769622
1,314000	-0,753840
1,315000	-0,731812
1,316000	-0,707482
1,317000	-0,677234
1,318000	-0,646987
1,319000	-0,625616
1,320000	-0,621999
1,321000	-0,621999
1,322000	-0,642384
1,323000	-0,668029
1,324000	-0,698276
1,325000	-0,728524
1,326000	-0,753840
1,327000	-0,777513
1,328000	-0,785075
1,329000	-0,788691
1,330000	-0,779485
1,331000	-0,762060
1,332000	-0,739374
1,333000	-0,711756
1,334000	-0,680851
1,335000	-0,650932
1,336000	-0,637781
1,337000	-0,634493
1,338000	-0,642384
1,339000	-0,665398
1,340000	-0,692687
1,341000	-0,722935
1,342000	-0,750881
1,343000	-0,777184
1,344000	-0,794938
1,345000	-0,801843
1,346000	-0,801843
1,347000	-0,788691
1,348000	-0,768636
1,349000	-0,745621
1,350000	-0,716031
1,351000	-0,684468
1,352000	-0,657836
1,353000	-0,651590
1,354000	-0,647315
1,355000	-0,663754
1,356000	-0,688413
1,357000	-0,717675
1,358000	-0,748251
1,359000	-0,773239
1,360000	-0,800199
1,361000	-0,812692
1,362000	-0,817624
1,363000	-0,812692
1,364000	-0,797240
1,365000	-0,775211
1,366000	-0,750224
1,367000	-0,719318
1,368000	-0,688742
1,369000	-0,669015
1,370000	-0,665070
1,371000	-0,666385
1,372000	-0,686112
1,373000	-0,712743
1,374000	-0,742333
1,375000	-0,772581
1,376000	-0,797897
1,377000	-0,821241
1,378000	-0,829460
1,379000	-0,832090
1,380000	-0,822227
1,381000	-0,804802
1,382000	-0,782116
1,383000	-0,754498
1,384000	-0,725237
1,385000	-0,694660
1,386000	-0,682495
1,387000	-0,678550
1,388000	-0,686440
1,389000	-0,709126
1,390000	-0,738059
1,391000	-0,768307
1,392000	-0,795267
1,393000	-0,821569
1,394000	-0,839981
1,395000	-0,845242
1,396000	-0,843927
1,397000	-0,831762
1,398000	-0,812035
1,399000	-0,788034
1,400000	-0,759759
1,401000	-0,727538
1,402000	-0,701893
1,403000	-0,694660
1,404000	-0,692030
1,405000	-0,708140
1,406000	-0,732798
1,407000	-0,762060
1,408000	-0,792308
1,409000	-0,817624
1,410000	-0,844255
1,411000	-0,856091
1,412000	-0,861023
1,413000	-0,856749
1,414000	-0,839652
1,415000	-0,818610
1,416000	-0,793952
1,417000	-0,763375
1,418000	-0,732141
1,419000	-0,713072
1,420000	-0,708469
1,421000	-0,710113
1,422000	-0,730168
1,423000	-0,756471
1,424000	-0,786390
1,425000	-0,816638
1,426000	-0,841625
1,427000	-0,865626
1,428000	-0,873188
1,429000	-0,876476
1,430000	-0,866612
1,431000	-0,847872
1,432000	-0,825515
1,433000	-0,797897
1,434000	-0,767321
1,435000	-0,737073
1,436000	-0,725894
1,437000	-0,721949
1,438000	-0,730497
1,439000	-0,753840
1,440000	-0,782116
1,441000	-0,812035
1,442000	-0,839324
1,443000	-0,865626
1,444000	-0,883380
1,445000	-0,889298
1,446000	-0,888641
1,447000	-0,875490
1,448000	-0,855763
1,449000	-0,831433
1,450000	-0,802829
1,451000	-0,770937
1,452000	-0,745621
1,453000	-0,738059
1,454000	-0,735758
1,455000	-0,752197
1,456000	-0,778170
1,457000	-0,806774
1,458000	-0,837022
1,459000	-0,862009
1,460000	-0,888641
1,461000	-0,899819
1,462000	-0,905080
1,463000	-0,899162
1,464000	-0,883709
1,465000	-0,862009
1,466000	-0,836693
1,467000	-0,806117
1,468000	-0,775540
1,469000	-0,756471
1,470000	-0,751868
1,471000	-0,753840
1,472000	-0,774882
1,473000	-0,801514
1,474000	-0,831104
1,475000	-0,860694
1,476000	-0,886339
1,477000	-0,908368
1,478000	-0,916258
1,479000	-0,918889
1,480000	-0,909354
1,481000	-0,890942
1,482000	-0,868585
1,483000	-0,840968
1,484000	-0,811048
1,485000	-0,780472
1,486000	-0,768964
1,487000	-0,764690
1,488000	-0,774225
1,489000	-0,797897
1,490000	-0,825515
1,491000	-0,856749
1,492000	-0,883051
1,493000	-0,909354
1,494000	-0,926451
1,495000	-0,932697
1,496000	-0,932040
1,497000	-0,918560
1,498000	-0,897847
1,499000	-0,874174
1,500000	-0,844913
1,501000	-0,813350
1,502000	-0,788363
1,503000	-0,781787
1,504000	-0,780472
1,505000	-0,796253
1,506000	-0,821241
1,507000	-0,850831
1,508000	-0,881079
1,509000	-0,906066
1,510000	-0,933026
1,511000	-0,943876
1,512000	-0,947821
1,513000	-0,942890
1,514000	-0,926451
1,515000	-0,903765
1,516000	-0,879435
1,517000	-0,848858
1,518000	-0,817953
1,519000	-0,799541
1,520000	-0,795924
1,521000	-0,798226
1,522000	-0,818939
1,523000	-0,845570
1,524000	-0,874832
1,525000	-0,904422
1,526000	-0,931054
1,527000	-0,952753
1,528000	-0,960644
1,529000	-0,963932
1,530000	-0,952424
1,531000	-0,934013
1,532000	-0,910669
1,533000	-0,883380
1,534000	-0,853132
1,535000	-0,822885
1,536000	-0,812364
1,537000	-0,807761
1,538000	-0,817624
1,539000	-0,840968
1,540000	-0,869900
1,541000	-0,900148
1,542000	-0,927437
1,543000	-0,953082
1,544000	-0,970178
1,545000	-0,975768
1,546000	-0,974781
1,547000	-0,960315
1,548000	-0,940588
1,549000	-0,916258
1,550000	-0,887326
1,551000	-0,856091
1,552000	-0,830447
1,553000	-0,823871
1,554000	-0,823213
1,555000	-0,839981
1,556000	-0,864640
1,557000	-0,893901
1,558000	-0,923820
1,559000	-0,949794
1,560000	-0,975110
1,561000	-0,985960
1,562000	-0,990892
1,563000	-0,985631
1,564000	-0,968535
1,565000	-0,947164
1,566000	-0,920861
1,567000	-0,890613
1,568000	-0,860694
1,569000	-0,841625
1,570000	-0,838008
1,571000	-0,840639
1,572000	-0,862338
1,573000	-0,889298
1,574000	-0,918231
1,575000	-0,948150
1,576000	-0,974124
1,577000	-0,996152
1,578000	-1,003057
1,579000	-1,006344
1,580000	-0,994837
1,581000	-0,976097
1,582000	-0,953411
1,583000	-0,925793
1,584000	-0,895545
1,585000	-0,866284
1,586000	-0,856091
1,587000	-0,852475
1,588000	-0,861681
1,589000	-0,886011
1,590000	-0,914286
1,591000	-0,944534
1,592000	-0,971822
1,593000	-0,997139
1,594000	-1,014893
1,595000	-1,018838
1,596000	-1,018181
1,597000	-1,003714
1,598000	-0,983659
1,599000	-0,959000
1,600000	-0,930067
1,601000	-0,898175
1,602000	-0,873846
1,603000	-0,867270
1,604000	-0,865955
1,605000	-0,883380
1,606000	-0,909354
1,607000	-0,938287
1,608000	-0,968863
1,609000	-0,993193
1,610000	-1,019167
1,611000	-1,030345
1,612000	-1,034291
1,613000	-1,028044
1,614000	-1,011276
1,615000	-0,989577
1,616000	-0,963274
1,617000	-0,933026
1,618000	-0,903107
1,619000	-0,885682
1,620000	-0,880421
1,621000	-0,884367
1,622000	-0,906066
1,623000	-0,932697
1,624000	-0,961959
1,625000	-0,991220
1,626000	-1,016865
1,627000	-1,039223
1,628000	-1,046127
1,629000	-1,050072
1,630000	-1,038236
1,631000	-1,019824
1,632000	-0,996152
1,633000	-0,968206
1,634000	-0,938616
1,635000	-0,909025
1,636000	-0,899491
1,637000	-0,894230
1,638000	-0,905080
1,639000	-0,929081
1,640000	-0,957685
1,641000	-0,988261
1,642000	-1,014235
1,643000	-1,039551
1,644000	-1,055990
1,645000	-1,062237
1,646000	-1,060922
1,647000	-1,045798
1,648000	-1,026729
1,649000	-1,002399
1,650000	-0,972480
1,651000	-0,940917
1,652000	-0,916587
1,653000	-0,910669
1,654000	-0,910012
1,655000	-0,927437
1,656000	-0,953082
1,657000	-0,982015
1,658000	-1,011934
1,659000	-1,037579
1,660000	-1,062566
1,661000	-1,073416
1,662000	-1,078019
1,663000	-1,071443
1,664000	-1,054018
1,665000	-1,031989
1,666000	-1,006016
1,667000	-0,975439
1,668000	-0,946506
1,669000	-0,928423
1,670000	-0,924478
1,671000	-0,928423
1,672000	-0,949794
1,673000	-0,976425
1,674000	-1,006344
1,675000	-1,035935
1,676000	-1,062566
1,677000	-1,083279
1,678000	-1,090512
1,679000	-1,092814
1,680000	-1,080978
1,681000	-1,061580
1,682000	-1,038894
1,683000	-1,009303
1,684000	-0,980371
1,685000	-0,951438
1,686000	-0,941903
1,687000	-0,937958
1,688000	-0,948479
1,689000	-0,972480
1,690000	-1,000098
1,691000	-1,031003
1,692000	-1,057305
1,693000	-1,083937
1,694000	-1,099061
1,695000	-1,104650
1,696000	-1,103335
1,697000	-1,088540
1,698000	-1,067498
1,699000	-1,042839
1,700000	-1,013249
1,701000	-0,982343
1,702000	-0,958671
1,703000	-0,952424
1,704000	-0,952096
1,705000	-0,970178
1,706000	-0,994837
1,707000	-1,025085
1,708000	-1,054346
1,709000	-1,079991
1,710000	-1,104650
1,711000	-1,115828
1,712000	-1,119116
1,713000	-1,112541
1,714000	-1,095444
1,715000	-1,074073
1,716000	-1,046784
1,717000	-1,016537
1,718000	-0,986946
1,719000	-0,970507
1,720000	-0,963274
1,721000	-0,964260
1,722000	-0,985302
1,723000	-1,012262
1,724000	-1,042182
1,725000	-1,071772
1,726000	-1,096759
1,727000	-1,118459
1,728000	-1,125363
1,729000	-1,126678
1,730000	-1,114842
1,731000	-1,095773
1,732000	-1,071772
1,733000	-1,044812
1,734000	-1,011934
1,735000	-0,983987
1,736000	-0,978727
1,737000	-0,978398
1,738000	-0,990234
1,739000	-1,014893
1,740000	-1,045798
1,741000	-1,075717
1,742000	-1,103335
1,743000	-1,128980
1,744000	-1,145090
1,745000	-1,149693
1,746000	-1,147720
1,747000	-1,131281
1,748000	-1,110239
1,749000	-1,085909
1,750000	-1,056977
1,751000	-1,025742
1,752000	-1,002728
1,753000	-0,996810
1,754000	-0,995166
1,755000	-1,013578
1,756000	-1,039880
1,757000	-1,068155
1,758000	-1,098074
1,759000	-1,124048
1,760000	-1,148707
1,761000	-1,159228
1,762000	-1,162515
1,763000	-1,155611
1,764000	-1,138514
1,765000	-1,116157
1,766000	-1,089855
1,767000	-1,059607
1,768000	-1,029688
1,769000	-1,014235
1,770000	-1,008317
1,771000	-1,013578
1,772000	-1,035935
1,773000	-1,063224
1,774000	-1,093800
1,775000	-1,121418
1,776000	-1,147720
1,777000	-1,169091
1,778000	-1,175009
1,779000	-1,177639
1,780000	-1,164817
1,781000	-1,146405
1,782000	-1,123062
1,783000	-1,094787
1,784000	-1,062895
1,785000	-1,035935
1,786000	-1,026071
1,787000	-1,022455
1,788000	-1,034620
1,789000	-1,059278
1,790000	-1,087553
1,791000	-1,118130
1,792000	-1,145090
1,793000	-1,170735
1,794000	-1,186516
1,795000	-1,191777
1,796000	-1,189147
1,797000	-1,174023
1,798000	-1,152981
1,799000	-1,127336
1,800000	-1,098403
1,801000	-1,067169
1,802000	-1,044483
1,803000	-1,039880
1,804000	-1,037907
1,805000	-1,056977
1,806000	-1,082622
1,807000	-1,113198
1,808000	-1,142460
1,809000	-1,167118
1,810000	-1,192434
1,811000	-1,201969
1,812000	-1,206243
1,813000	-1,198681
1,814000	-1,181585
1,815000	-1,159228
1,816000	-1,132268
1,817000	-1,102677
1,818000	-1,072101
1,819000	-1,056648
1,820000	-1,050730
1,821000	-1,056977
1,822000	-1,079334
1,823000	-1,106951
1,824000	-1,136542
1,825000	-1,165146
1,826000	-1,191448
1,827000	-1,210846
1,828000	-1,218079
1,829000	-1,220381
1,830000	-1,207230
1,831000	-1,188160
1,832000	-1,165146
1,833000	-1,136542
1,834000	-1,106294
1,835000	-1,077361
1,836000	-1,069142
1,837000	-1,065525
1,838000	-1,078019
1,839000	-1,102020
1,840000	-1,130952
1,841000	-1,160543
1,842000	-1,187503
1,843000	-1,213805
1,844000	-1,227943
1,845000	-1,233203
1,846000	-1,230902
1,847000	-1,215449
1,848000	-1,194407
1,849000	-1,170406
1,850000	-1,140158
1,851000	-1,108267
1,852000	-1,086238
1,853000	-1,080978
1,854000	-1,081635
1,855000	-1,100047
1,856000	-1,126021
1,857000	-1,154625
1,858000	-1,184872
1,859000	-1,210189
1,860000	-1,235176
1,861000	-1,244382
1,862000	-1,247670
1,863000	-1,240765
1,864000	-1,222682
1,865000	-1,200983
1,866000	-1,174023
1,867000	-1,144104
1,868000	-1,113856
1,869000	-1,099061
1,870000	-1,092814
1,871000	-1,099389
1,872000	-1,122404
1,873000	-1,149364
1,874000	-1,179612
1,875000	-1,207558
1,876000	-1,233532
1,877000	-1,254245
1,878000	-1,260163
1,879000	-1,261807
1,880000	-1,248985
1,881000	-1,229915
1,882000	-1,206901
1,883000	-1,177968
1,884000	-1,147391
1,885000	-1,119445
1,886000	-1,111226
1,887000	-1,107609
1,888000	-1,120760
1,889000	-1,144761
1,890000	-1,173365
1,891000	-1,204599
1,892000	-1,229915
1,893000	-1,256547
1,894000	-1,271013
1,895000	-1,275287
1,896000	-1,272986
1,897000	-1,256876
1,898000	-1,236162
1,899000	-1,211175
1,900000	-1,181585
1,901000	-1,151008
1,902000	-1,128322
1,903000	-1,123062
1,904000	-1,124048
1,905000	-1,141802
1,906000	-1,168433
1,907000	-1,197366
1,908000	-1,227943
1,909000	-1,252601
1,910000	-1,277589
1,911000	-1,286795
1,912000	-1,289754
1,913000	-1,282192
1,914000	-1,264109
1,915000	-1,242409
1,916000	-1,215120
1,917000	-1,184215
1,918000	-1,155611
1,919000	-1,140487
1,920000	-1,136870
1,921000	-1,142460
1,922000	-1,164817
1,923000	-1,192106
1,924000	-1,222682
1,925000	-1,250629
1,926000	-1,276602
1,927000	-1,296658
1,928000	-1,302576
1,929000	-1,303562
1,930000	-1,291069
1,931000	-1,272328
1,932000	-1,248327
1,933000	-1,220052
1,934000	-1,187832
1,935000	-1,161200
1,936000	-1,153638
1,937000	-1,150022
1,938000	-1,162844
1,939000	-1,187503
1,940000	-1,216764
1,941000	-1,246683
1,942000	-1,272986
1,943000	-1,299288
1,944000	-1,313097
1,945000	-1,318029
1,946000	-1,315070
1,947000	-1,299617
1,948000	-1,277917
1,949000	-1,253259
1,950000	-1,223669
1,951000	-1,192434
1,952000	-1,170735
1,953000	-1,165474
1,954000	-1,165474
1,955000	-1,185530
1,956000	-1,211175
1,957000	-1,240108
1,958000	-1,270027
1,959000	-1,295343
1,960000	-1,320001
1,961000	-1,329207
1,962000	-1,332495
1,963000	-1,323947
1,964000	-1,305864
1,965000	-1,284164
1,966000	-1,256876
1,967000	-1,226628
1,968000	-1,196709
1,969000	-1,182242
1,970000	-1,178626
1,971000	-1,184544
1,972000	-1,207558
1,973000	-1,234518
1,974000	-1,265095
1,975000	-1,293041
1,976000	-1,319015
1,977000	-1,338413
1,978000	-1,344660
1,979000	-1,344989
1,980000	-1,332824
1,981000	-1,313426
1,982000	-1,289425
1,983000	-1,261478
1,984000	-1,230244
1,985000	-1,202627
1,986000	-1,195393
1,987000	-1,191448
1,988000	-1,205586
1,989000	-1,230573
1,990000	-1,258848
1,991000	-1,289096
1,992000	-1,314741
1,993000	-1,341701
1,994000	-1,354852
1,995000	-1,360770
1,996000	-1,356496
1,997000	-1,340715
1,998000	-1,319673
1,999000	-1,294357
2,000000	-1,264437
2,001000	-1,233861
2,002000	-1,213148
2,003000	-1,207230
2,004000	-1,208216
2,005000	-1,227943
2,006000	-1,253916
2,007000	-1,283178
2,008000	-1,313755
2,009000	-1,338413
2,010000	-1,362743
2,011000	-1,371291
2,012000	-1,374908
2,013000	-1,366031
2,014000	-1,347619
2,015000	-1,326248
2,016000	-1,298631
2,017000	-1,268383
2,018000	-1,239121
2,019000	-1,223997
2,020000	-1,219066
2,021000	-1,227614
2,022000	-1,249314
2,023000	-1,278575
2,024000	-1,307179
2,025000	-1,335783
2,026000	-1,362085
2,027000	-1,381155
2,028000	-1,387402
2,029000	-1,387730
2,030000	-1,374579
2,031000	-1,354852
2,032000	-1,330522
2,033000	-1,302576
2,034000	-1,271671
2,035000	-1,243724
2,036000	-1,236820
2,037000	-1,233861
2,038000	-1,247998
2,039000	-1,273315
2,040000	-1,301919
2,041000	-1,331838
2,042000	-1,357482
2,043000	-1,384114
2,044000	-1,395950
2,045000	-1,401868
2,046000	-1,397594
2,047000	-1,381812
2,048000	-1,360441
2,049000	-1,335783
2,050000	-1,306193
2,051000	-1,274301
2,052000	-1,253588
2,053000	-1,248656
2,054000	-1,249971
2,055000	-1,269698
2,056000	-1,295672
2,057000	-1,324933
2,058000	-1,355510
2,059000	-1,380497
2,060000	-1,405156
2,061000	-1,412718
2,062000	-1,416992
2,063000	-1,407457
2,064000	-1,389045
2,065000	-1,367346
2,066000	-1,339400
2,067000	-1,310467
2,068000	-1,279233
2,069000	-1,265424
2,070000	-1,261478
2,071000	-1,269369
2,072000	-1,292713
2,073000	-1,320330
2,074000	-1,351236
2,075000	-1,377867
2,076000	-1,403512
2,077000	-1,423567
2,078000	-1,428828
2,079000	-1,429485
2,080000	-1,416663
2,081000	-1,395950
2,082000	-1,372935
2,083000	-1,343345
2,084000	-1,313097
2,085000	-1,286466
2,086000	-1,279561
2,087000	-1,277260
2,088000	-1,291069
2,089000	-1,316385
2,090000	-1,344002
2,091000	-1,374250
2,092000	-1,399895
2,093000	-1,426526
2,094000	-1,439678
2,095000	-1,444281
2,096000	-1,440664
2,097000	-1,423896
2,098000	-1,402525
2,099000	-1,377209
2,100000	-1,347290
2,101000	-1,316056
2,102000	-1,296329
2,103000	-1,291069
2,104000	-1,292713
2,105000	-1,313426
2,106000	-1,339400
2,107000	-1,368661
2,108000	-1,398580
2,109000	-1,423896
2,110000	-1,447897
2,111000	-1,456445
2,112000	-1,459076
2,113000	-1,448226
2,114000	-1,430143
2,115000	-1,407457
2,116000	-1,381483
2,117000	-1,351564
2,118000	-1,320001
2,119000	-1,308165
2,120000	-1,303562
2,121000	-1,310796
2,122000	-1,334139
2,123000	-1,362414
2,124000	-1,392991
2,125000	-1,419951
2,126000	-1,446582
2,127000	-1,463679
2,128000	-1,470254
2,129000	-1,470254
2,130000	-1,457103
2,131000	-1,437376
2,132000	-1,413704
2,133000	-1,384114
2,134000	-1,353208
2,135000	-1,327235
2,136000	-1,319015
2,137000	-1,316714
2,138000	-1,332495
2,139000	-1,357811
2,140000	-1,386415
2,141000	-1,416663
2,142000	-1,441979
2,143000	-1,468610
2,144000	-1,480446
2,145000	-1,484721
2,146000	-1,480446
2,147000	-1,465323
2,148000	-1,442965
2,149000	-1,418636
2,150000	-1,388717
2,151000	-1,358140
2,152000	-1,338413
2,153000	-1,333810
2,154000	-1,334797
2,155000	-1,355510
2,156000	-1,381483
2,157000	-1,410745
2,158000	-1,440006
2,159000	-1,465323
2,160000	-1,488995
2,161000	-1,497214
2,162000	-1,500173
2,163000	-1,490310
2,164000	-1,471569
2,165000	-1,448555
2,166000	-1,421266
2,167000	-1,390689
2,168000	-1,361099
2,169000	-1,349263
2,170000	-1,345646
2,171000	-1,353208
2,172000	-1,375894
2,173000	-1,403841
2,174000	-1,434088
2,175000	-1,461706
2,176000	-1,487680
2,177000	-1,506420
2,178000	-1,511023
2,179000	-1,511352
2,180000	-1,496557
2,181000	-1,477487
2,182000	-1,453158
2,183000	-1,424554
2,184000	-1,392991
2,185000	-1,367346
2,186000	-1,360441
2,187000	-1,358140
2,188000	-1,373264
2,189000	-1,398909
2,190000	-1,427184
2,191000	-1,457761
2,192000	-1,482748
2,193000	-1,509379
2,194000	-1,520887
2,195000	-1,524174
2,196000	-1,514968
2,197000	-1,498529
2,198000	-1,475186
2,199000	-1,450856
2,200000	-1,420280
2,201000	-1,389374
2,202000	-1,370305
2,203000	-1,366360
2,204000	-1,367346
2,205000	-1,387730
2,206000	-1,414033
2,207000	-1,443952
2,208000	-1,471569
2,209000	-1,497214
2,210000	-1,521873
2,211000	-1,528120
2,212000	-1,539627
2,213000	-1,529435
2,214000	-1,511023
2,215000	-1,491296
2,216000	-1,464336
2,217000	-1,433760
2,218000	-1,403841
2,219000	-1,392004
2,220000	-1,387073
2,221000	-1,396936
2,222000	-1,418964
2,223000	-1,447240
2,224000	-1,476830
2,225000	-1,504447
2,226000	-1,530421
2,227000	-1,547847
2,228000	-1,553765
2,229000	-1,553107
2,230000	-1,539298
2,231000	-1,519243
2,232000	-1,494913
2,233000	-1,466966
2,234000	-1,434746
2,235000	-1,409430
2,236000	-1,402854
2,237000	-1,400553
2,238000	-1,416005
2,239000	-1,442308
2,240000	-1,470254
2,241000	-1,500173
2,242000	-1,525818
2,243000	-1,552121
2,244000	-1,562642
2,245000	-1,568231
2,246000	-1,563299
2,247000	-1,546860
2,248000	-1,525161
2,249000	-1,498858
2,250000	-1,468610
2,251000	-1,439020
2,252000	-1,419622
2,253000	-1,415019
2,254000	-1,416663
2,255000	-1,437705
2,256000	-1,464007
2,257000	-1,493926
2,258000	-1,523188
2,259000	-1,549162
2,260000	-1,572505
2,261000	-1,579409
2,262000	-1,582040
2,263000	-1,571519
2,264000	-1,553765
2,265000	-1,530750
2,266000	-1,503461
2,267000	-1,472885
2,268000	-1,442965
2,269000	-1,431787
2,270000	-1,428170
2,271000	-1,437047
2,272000	-1,460720
2,273000	-1,488008
2,274000	-1,518585
2,275000	-1,546203
2,276000	-1,571519
2,277000	-1,589602
2,278000	-1,594862
2,279000	-1,594205
2,280000	-1,580396
2,281000	-1,560011
2,282000	-1,535682
2,283000	-1,507078
2,284000	-1,475844
2,285000	-1,450199
2,286000	-1,443952
2,287000	-1,442308
2,288000	-1,458089
2,289000	-1,483077
2,290000	-1,512667
2,291000	-1,541928
2,292000	-1,567245
2,293000	-1,594533
2,294000	-1,604726
2,295000	-1,609986
2,296000	-1,604068
2,297000	-1,587958
2,298000	-1,566258
2,299000	-1,540285
2,300000	-1,510037
2,301000	-1,479789
2,302000	-1,460391
2,303000	-1,456774
2,304000	-1,458747
2,305000	-1,479789
2,306000	-1,506091
2,307000	-1,535682
2,308000	-1,565272
2,309000	-1,591246
2,310000	-1,613274
2,311000	-1,620836
2,312000	-1,624452
2,313000	-1,613274
2,314000	-1,594533
2,315000	-1,571848
2,316000	-1,543901
2,317000	-1,513325
2,318000	-1,484392
2,319000	-1,472885
2,320000	-1,467953
2,321000	-1,479131
2,322000	-1,502146
2,323000	-1,529764
2,324000	-1,560669
2,325000	-1,586971
2,326000	-1,613931
2,327000	-1,630699
2,328000	-1,635960
2,329000	-1,635302
2,330000	-1,621165
2,331000	-1,600451
2,332000	-1,576122
2,333000	-1,547847
2,334000	-1,515955
2,335000	-1,491296
2,336000	-1,485049
2,337000	-1,482090
2,338000	-1,499516
2,339000	-1,525818
2,340000	-1,554093
2,341000	-1,584012
2,342000	-1,609657
2,343000	-1,635302
2,344000	-1,646481
2,345000	-1,650755
2,346000	-1,645166
2,347000	-1,628727
2,348000	-1,607027
2,349000	-1,580725
2,350000	-1,551134
2,351000	-1,519900
2,352000	-1,501488
2,353000	-1,497543
2,354000	-1,500173
2,355000	-1,520887
2,356000	-1,548504
2,357000	-1,578752
2,358000	-1,607027
2,359000	-1,633330
2,360000	-1,655029
2,361000	-1,662591
2,362000	-1,665221
2,363000	-1,653714
2,364000	-1,635631
2,365000	-1,611959
2,366000	-1,584670
2,367000	-1,554422
2,368000	-1,524832
2,369000	-1,513653
2,370000	-1,510037
2,371000	-1,520229
2,372000	-1,544230
2,373000	-1,572176
2,374000	-1,602753
2,375000	-1,629713
2,376000	-1,655029
2,377000	-1,672126
2,378000	-1,677057
2,379000	-1,676400
2,380000	-1,661933
2,381000	-1,641549
2,382000	-1,617219
2,383000	-1,587958
2,384000	-1,556395
2,385000	-1,532394
2,386000	-1,526476
2,387000	-1,524174
2,388000	-1,541600
2,389000	-1,567245
2,390000	-1,595849
2,391000	-1,625768
2,392000	-1,650755
2,393000	-1,676729
2,394000	-1,687578
2,395000	-1,692839
2,396000	-1,685934
2,397000	-1,669167
2,398000	-1,647467
2,399000	-1,621165
2,400000	-1,590588
2,401000	-1,560998
2,402000	-1,543244
2,403000	-1,537983
2,404000	-1,541928
2,405000	-1,563299
2,406000	-1,590588
2,407000	-1,619849
2,408000	-1,648453
2,409000	-1,674756
2,410000	-1,697442
2,411000	-1,703689
2,412000	-1,705990
2,413000	-1,694811
2,414000	-1,675742
2,415000	-1,652399
2,416000	-1,625439
2,417000	-1,594205
2,418000	-1,565601
2,419000	-1,554093
2,420000	-1,550148
2,421000	-1,561984
2,422000	-1,585985
2,423000	-1,614260
2,424000	-1,644508
2,425000	-1,671797
2,426000	-1,696784
2,427000	-1,714210
2,428000	-1,718812
2,429000	-1,717826
2,430000	-1,702373
2,431000	-1,681989
2,432000	-1,657330
2,433000	-1,629055
2,434000	-1,597164
2,435000	-1,573491
2,436000	-1,567573
2,437000	-1,565272
2,438000	-1,583355
2,439000	-1,608671
2,440000	-1,637275
2,441000	-1,667194
2,442000	-1,693168
2,443000	-1,718812
2,444000	-1,729005
2,445000	-1,733608
2,446000	-1,726703
2,447000	-1,709935
2,448000	-1,687578
2,449000	-1,661605
2,450000	-1,631028
2,451000	-1,601438
2,452000	-1,584341
2,453000	-1,579409
2,454000	-1,582368
2,455000	-1,604397
2,456000	-1,632014
2,457000	-1,661276
2,458000	-1,690209
2,459000	-1,715853
2,460000	-1,737224
2,461000	-1,744457
2,462000	-1,747416
2,463000	-1,735580
2,464000	-1,716511
2,465000	-1,693168
2,466000	-1,665550
2,467000	-1,635631
2,468000	-1,605383
2,469000	-1,595520
2,470000	-1,591903
2,471000	-1,603410
2,472000	-1,627083
2,473000	-1,655358
2,474000	-1,685606
2,475000	-1,712237
2,476000	-1,738211
2,477000	-1,753992
2,478000	-1,759252
2,479000	-1,757609
2,480000	-1,743142
2,481000	-1,722429
2,482000	-1,698428
2,483000	-1,669495
2,484000	-1,637932
2,485000	-1,613931
2,486000	-1,608013
2,487000	-1,607027
2,488000	-1,624781
2,489000	-1,650097
2,490000	-1,679030
2,491000	-1,708949
2,492000	-1,734265
2,493000	-1,760239
2,494000	-1,770431
2,495000	-1,774705
2,496000	-1,767143
2,497000	-1,750375
2,498000	-1,728676
2,499000	-1,702373
2,500000	-1,672126
2,501000	-1,642207
2,502000	-1,625768
2,503000	-1,620507
2,504000	-1,624452
2,505000	-1,646152
2,506000	-1,673441
2,507000	-1,702045
2,508000	-1,731306
2,509000	-1,757280
2,510000	-1,778979
2,511000	-1,786212
2,512000	-1,788514
2,513000	-1,775691
2,514000	-1,757280
2,515000	-1,734265
2,516000	-1,706319
2,517000	-1,675413
2,518000	-1,646481
2,519000	-1,636946
2,520000	-1,632014
2,521000	-1,644508
2,522000	-1,668838
2,523000	-1,697442
2,524000	-1,727032
2,525000	-1,752677
2,526000	-1,779308
2,527000	-1,795418
2,528000	-1,800021
2,529000	-1,798706
2,530000	-1,783911
2,531000	-1,762869
2,532000	-1,738539
2,533000	-1,709607
2,534000	-1,677715
2,535000	-1,654371
2,536000	-1,648453
2,537000	-1,647138
2,538000	-1,665550
2,539000	-1,691195
2,540000	-1,720456
2,541000	-1,750047
2,542000	-1,775691
2,543000	-1,800679
2,544000	-1,811200
2,545000	-1,815474
2,546000	-1,807583
2,547000	-1,790815
2,548000	-1,768787
2,549000	-1,742485
2,550000	-1,712237
2,551000	-1,682318
2,552000	-1,666536
2,553000	-1,661276
2,554000	-1,665550
2,555000	-1,687907
2,556000	-1,714867
2,557000	-1,744129
2,558000	-1,772404
2,559000	-1,799364
2,560000	-1,820406
2,561000	-1,826652
2,562000	-1,829612
2,563000	-1,816789
2,564000	-1,797720
2,565000	-1,773719
2,566000	-1,746430
2,567000	-1,715853
2,568000	-1,687578
2,569000	-1,677386
2,570000	-1,674427
2,571000	-1,685934
2,572000	-1,709935
2,573000	-1,737882
2,574000	-1,769445
2,575000	-1,795418
2,576000	-1,821392
2,577000	-1,836187
2,578000	-1,842105
2,579000	-1,839146
2,580000	-1,825337
2,581000	-1,804624
2,582000	-1,779966
2,583000	-1,750704
2,584000	-1,719141
2,585000	-1,696127
2,586000	-1,690209
2,587000	-1,688893
2,588000	-1,707634
2,589000	-1,732950
2,590000	-1,762211
2,591000	-1,792459
2,592000	-1,817775
2,593000	-1,842434
2,594000	-1,851640
2,595000	-1,855256
2,596000	-1,847694
2,597000	-1,830598
2,598000	-1,808241
2,599000	-1,781281
2,600000	-1,752348
2,601000	-1,721771
2,602000	-1,706976
2,603000	-1,701058
2,604000	-1,705990
2,605000	-1,728676
2,606000	-1,755965
2,607000	-1,785226
2,608000	-1,813501
2,609000	-1,839804
2,610000	-1,860517
2,611000	-1,867092
2,612000	-1,869065
2,613000	-1,856572
2,614000	-1,837173
2,615000	-1,813830
2,616000	-1,785884
2,617000	-1,755307
2,618000	-1,726703
2,619000	-1,717826
2,620000	-1,713223
2,621000	-1,726046
2,622000	-1,750375
2,623000	-1,779637
2,624000	-1,809885
2,625000	-1,835858
2,626000	-1,862161
2,627000	-1,877613
2,628000	-1,882216
2,629000	-1,880244
2,630000	-1,864791
2,631000	-1,843749
2,632000	-1,819419
2,633000	-1,789500
2,634000	-1,758266
2,635000	-1,736238
2,636000	-1,730320
2,637000	-1,729662
2,638000	-1,748731
2,639000	-1,773719
2,640000	-1,802323
2,641000	-1,832242
2,642000	-1,857229
2,643000	-1,883203
2,644000	-1,892080
2,645000	-1,896354
2,646000	-1,889121
2,647000	-1,871038
2,648000	-1,848681
2,649000	-1,822050
2,650000	-1,791802
2,651000	-1,761883
2,652000	-1,745444
2,653000	-1,741170
2,654000	-1,747088
2,655000	-1,769116
2,656000	-1,796733
2,657000	-1,826324
2,658000	-1,854270
2,659000	-1,881230
2,660000	-1,900628
2,661000	-1,906546
2,662000	-1,908848
2,663000	-1,895696
2,664000	-1,876627
2,665000	-1,853284
2,666000	-1,825337
2,667000	-1,795090
2,668000	-1,766157
2,669000	-1,757937
2,670000	-1,753992
2,671000	-1,763198
2,672000	-1,784897
2,673000	-1,812515
2,674000	-1,843420
2,675000	-1,870052
2,676000	-1,895368
2,677000	-1,909505
2,678000	-1,914766
2,679000	-1,911807
2,680000	-1,895696
2,681000	-1,875641
2,682000	-1,856572
2,683000	-1,821721
2,684000	-1,788514
2,685000	-1,765828
2,686000	-1,760239
2,687000	-1,764184
2,688000	-1,787199
2,689000	-1,813501
2,690000	-1,842763
2,691000	-1,875641
2,692000	-1,900628
2,693000	-1,925615
2,694000	-1,935150
2,695000	-1,938438
2,696000	-1,930876
2,697000	-1,913779
2,698000	-1,890107
2,699000	-1,862490
2,700000	-1,832242
2,701000	-1,802652
2,702000	-1,787856
2,703000	-1,783582
2,704000	-1,788843
2,705000	-1,810871
2,706000	-1,838489
2,707000	-1,868736
2,708000	-1,896354
2,709000	-1,921999
2,710000	-1,943041
2,711000	-1,948630
2,712000	-1,949945
2,713000	-1,937451
2,714000	-1,918382
2,715000	-1,894381
2,716000	-1,866106
2,717000	-1,835530
2,718000	-1,807912
2,719000	-1,799364
2,720000	-1,797391
2,721000	-1,809227
2,722000	-1,833228
2,723000	-1,861832
2,724000	-1,892080
2,725000	-1,917725
2,726000	-1,944685
2,727000	-1,958165
2,728000	-1,963096
2,729000	-1,960795
2,730000	-1,945013
2,731000	-1,924300
2,732000	-1,898984
2,733000	-1,869394
2,734000	-1,837831
2,735000	-1,816132
2,736000	-1,810542
2,737000	-1,810871
2,738000	-1,830598
2,739000	-1,856572
2,740000	-1,885504
2,741000	-1,915094
2,742000	-1,940739
2,743000	-1,965069
2,744000	-1,973946
2,745000	-1,977563
2,746000	-1,969343
2,747000	-1,951260
2,748000	-1,928574
2,749000	-1,902272
2,750000	-1,873011
2,751000	-1,841448
2,752000	-1,827310
2,753000	-1,823365
2,754000	-1,829283
2,755000	-1,850982
2,756000	-1,879915
2,757000	-1,909176
2,758000	-1,937123
2,759000	-1,962439
2,760000	-1,983152
2,761000	-1,989728
2,762000	-1,990056
2,763000	-1,977234
2,764000	-1,958165
2,765000	-1,934492
2,766000	-1,905889
2,767000	-1,875312
2,768000	-1,848023
2,769000	-1,839475
2,770000	-1,837173
2,771000	-1,849996
2,772000	-1,874983
2,773000	-1,902930
2,774000	-1,932849
2,775000	-1,959809
2,776000	-1,985453
2,777000	-1,998605
2,778000	-2,003865
2,779000	-2,000577
2,780000	-1,984796
2,781000	-1,963096
2,782000	-1,938109
2,783000	-1,909834
2,784000	-1,877942
2,785000	-1,856572
2,786000	-1,852297
2,787000	-1,851311
2,788000	-1,871695
2,789000	-1,897669
2,790000	-1,925615
2,791000	-1,956521
2,792000	-1,982166
2,793000	-2,005180
2,794000	-2,014386
2,795000	-2,018331
2,796000	-2,009783
2,797000	-1,992029
2,798000	-1,970001
2,799000	-1,941726
2,800000	-1,912135
2,801000	-1,881888
2,802000	-1,867750
2,803000	-1,864133
2,804000	-1,870052
2,805000	-1,892737
2,806000	-1,920355
2,807000	-1,950274
2,808000	-1,978220
2,809000	-2,004194
2,810000	-2,022934
2,811000	-2,029839
2,812000	-2,030496
2,813000	-2,017345
2,814000	-1,997618
2,815000	-1,974275
2,816000	-1,945671
2,817000	-1,914437
2,818000	-1,887148
2,819000	-1,879915
2,820000	-1,876956
2,821000	-1,890107
2,822000	-1,915423
2,823000	-1,943370
2,824000	-1,974275
2,825000	-1,999262
2,826000	-2,025565
2,827000	-2,039045
2,828000	-2,044963
2,829000	-2,040031
2,830000	-2,024907
2,831000	-2,003208
2,832000	-1,978549
2,833000	-1,948301
2,834000	-1,917725
2,835000	-1,896683
2,836000	-1,891422
2,837000	-1,891751
2,838000	-1,911478
2,839000	-1,937780
2,840000	-1,967371
2,841000	-1,996961
2,842000	-2,022934
2,843000	-2,045949
2,844000	-2,055155
2,845000	-2,058443
2,846000	-2,049566
2,847000	-2,031483
2,848000	-2,009126
2,849000	-1,981837
2,850000	-1,952247
2,851000	-1,921670
2,852000	-1,908519
2,853000	-1,903587
2,854000	-1,910820
2,855000	-1,933835
2,856000	-1,961781
2,857000	-1,991371
2,858000	-2,019318
2,859000	-2,044963
2,860000	-2,064032
2,861000	-2,069950
2,862000	-2,070936
2,863000	-2,057456
2,864000	-2,037730
2,865000	-2,013729
2,866000	-1,985782
2,867000	-1,954877
2,868000	-1,927259
2,869000	-1,919697
2,870000	-1,917067
2,871000	-1,931205
2,872000	-1,956192
2,873000	-1,984467
2,874000	-2,014386
2,875000	-2,041017
2,876000	-2,066662
2,877000	-2,079485
2,878000	-2,084416
2,879000	-2,080800
2,880000	-2,064032
2,881000	-2,043648
2,882000	-2,017674
2,883000	-1,987755
2,884000	-1,957507
2,885000	-1,936794
2,886000	-1,931862
2,887000	-1,931862
2,888000	-1,952247
2,889000	-1,978549
2,890000	-2,007810
2,891000	-2,037730
2,892000	-2,063046
2,893000	-2,086718
2,894000	-2,094609
2,895000	-2,098225
2,896000	-2,088690
2,897000	-2,071265
2,898000	-2,048579
2,899000	-2,021619
2,900000	-1,991371
2,901000	-1,961452
2,902000	-1,948301
2,903000	-1,944027
2,904000	-1,951589
2,905000	-1,974275
2,906000	-2,002221
2,907000	-2,032140
2,908000	-2,059758
2,909000	-2,086060
2,910000	-2,105129
2,911000	-2,110390
2,912000	-2,110061
2,913000	-2,096581
2,914000	-2,077512
2,915000	-2,053511
2,916000	-2,025236
2,917000	-1,993344
2,918000	-1,967699
2,919000	-1,959480
2,920000	-1,956521
2,921000	-1,972302
2,922000	-1,996961
2,923000	-2,026222
2,924000	-2,055812
2,925000	-2,081457
2,926000	-2,107760
2,927000	-2,119925
2,928000	-2,124199
2,929000	-2,120582
2,930000	-2,103814
2,931000	-2,083101
2,932000	-2,057785
2,933000	-2,027866
2,934000	-1,996303
2,935000	-1,976248
2,936000	-1,970987
2,937000	-1,972302
2,938000	-1,992687
2,939000	-2,019318
2,940000	-2,047922
2,941000	-2,077841
2,942000	-2,102828
2,943000	-2,126829
2,944000	-2,134391
2,945000	-2,138336
2,946000	-2,128802
2,947000	-2,110061
2,948000	-2,088033
2,949000	-2,060415
2,950000	-2,030825
2,951000	-2,000906
2,952000	-1,988412
2,953000	-1,983481
2,954000	-1,991371
2,955000	-2,014057
2,956000	-2,042661
2,957000	-2,072251
2,958000	-2,099211
2,959000	-2,125843
2,960000	-2,144583
2,961000	-2,150501
2,962000	-2,149844
2,963000	-2,136692
2,964000	-2,116966
2,965000	-2,093622
2,966000	-2,064689
2,967000	-2,034113
2,968000	-2,006824
2,969000	-1,999920
2,970000	-1,997290
2,971000	-2,012413
2,972000	-2,037401
2,973000	-2,065676
2,974000	-2,095266
2,975000	-2,121568
2,976000	-2,148200
2,977000	-2,160365
2,978000	-2,164967
2,979000	-2,160365
2,980000	-2,144254
2,981000	-2,122226
2,982000	-2,096910
2,983000	-2,068306
2,984000	-2,037072
2,985000	-2,016688
2,986000	-2,011756
2,987000	-2,013729
2,988000	-2,034113
2,989000	-2,060415
2,990000	-2,089677
2,991000	-2,119596
2,992000	-2,144583
2,993000	-2,167598
2,994000	-2,175160
2,995000	-2,178776
2,996000	-2,168584
2,997000	-2,151159
2,998000	-2,127487
2,999000	-2,100527
3,000000	-2,069950
3,001000	-2,040031
3,002000	-2,027866
3,003000	-2,023592
3,004000	-2,032140
3,005000	-2,055155
3,006000	-2,083101
3,007000	-2,113349
3,008000	-2,140638
3,009000	-2,166283
3,010000	-2,184037
3,011000	-2,189955
3,012000	-2,189955
3,013000	-2,175817
3,014000	-2,156419
3,015000	-2,131761
3,016000	-2,102828
3,017000	-2,071923
3,018000	-2,045620
3,019000	-2,039702
3,020000	-2,035428
3,021000	-2,053182
3,022000	-2,076854
3,023000	-2,106445
3,024000	-2,136364
3,025000	-2,161680
3,026000	-2,187325
3,027000	-2,200147
3,028000	-2,204092
3,029000	-2,199818
3,030000	-2,182064
3,031000	-2,162008
3,032000	-2,136035
3,033000	-2,105787
3,034000	-2,074882
3,035000	-2,055812
3,036000	-2,052196
3,037000	-2,053511
3,038000	-2,073238
3,039000	-2,100855
3,040000	-2,129788
3,041000	-2,159707
3,042000	-2,184366
3,043000	-2,207709
3,044000	-2,215600
3,045000	-2,218230
3,046000	-2,208366
3,047000	-2,189626
3,048000	-2,166940
3,049000	-2,139651
3,050000	-2,109404
3,051000	-2,079485
3,052000	-2,067649
3,053000	-2,063374
3,054000	-2,073238
3,055000	-2,096910
3,056000	-2,125185
3,057000	-2,154775
3,058000	-2,182393
3,059000	-2,208695
3,060000	-2,225134
3,061000	-2,231381
3,062000	-2,231710
3,063000	-2,216586
3,064000	-2,196202
3,065000	-2,171872
3,066000	-2,143268
3,067000	-2,112363
3,068000	-2,086389
3,069000	-2,078498
3,070000	-2,076197
3,071000	-2,092307
3,072000	-2,117952
3,073000	-2,146885
3,074000	-2,176475
3,075000	-2,202120
3,076000	-2,228751
3,077000	-2,239272
3,078000	-2,244204
3,079000	-2,238943
3,080000	-2,222504
3,081000	-2,200476
3,082000	-2,175817
3,083000	-2,144912
3,084000	-2,114664
3,085000	-2,095266
3,086000	-2,090992
3,087000	-2,092965
3,088000	-2,113678
3,089000	-2,139980
3,090000	-2,169570
3,091000	-2,199161
3,092000	-2,224477
3,093000	-2,247163
3,094000	-2,255053
3,095000	-2,257355
3,096000	-2,246505
3,097000	-2,228093
3,098000	-2,206065
3,099000	-2,177790
3,100000	-2,148200
3,101000	-2,118609
3,102000	-2,107102
3,103000	-2,102499
3,104000	-2,113020
3,105000	-2,136364
3,106000	-2,164310
3,107000	-2,194558
3,108000	-2,221189
3,109000	-2,247163
3,110000	-2,263930
3,111000	-2,269848
3,112000	-2,269848
3,113000	-2,255053
3,114000	-2,234011
3,115000	-2,209682
3,116000	-2,181735
3,117000	-2,149844
3,118000	-2,124528
3,119000	-2,117623
3,120000	-2,116966
3,121000	-2,132089
3,122000	-2,158063
3,123000	-2,186338
3,124000	-2,215928
3,125000	-2,241902
3,126000	-2,267876
3,127000	-2,279383
3,128000	-2,283000
3,129000	-2,277410
3,130000	-2,261629
3,131000	-2,239601
3,132000	-2,213627
3,133000	-2,183379
3,134000	-2,153460
3,135000	-2,135048
3,136000	-2,130446
3,137000	-2,132089
3,138000	-2,153789
3,139000	-2,179763
3,140000	-2,209024
3,141000	-2,238943
3,142000	-2,264259
3,143000	-2,287274
3,144000	-2,293849
3,145000	-2,297466
3,146000	-2,282013
3,147000	-2,261629
3,148000	-2,237957
3,149000	-2,209682
3,150000	-2,179105
3,151000	-2,149515
3,152000	-2,138336
3,153000	-2,135048
3,154000	-2,143926
3,155000	-2,167598
3,156000	-2,195873
3,157000	-2,225792
3,158000	-2,252423
3,159000	-2,277082
3,160000	-2,293521
3,161000	-2,299439
3,162000	-2,296808
3,163000	-2,292534
3,164000	-2,272479
3,165000	-2,248806
3,166000	-2,222175
3,167000	-2,190941
3,168000	-2,166283
3,169000	-2,159378
3,170000	-2,156748
3,171000	-2,174831
3,172000	-2,199818
3,173000	-2,227765
3,174000	-2,256697
3,175000	-2,282671
3,176000	-2,308644
3,177000	-2,319165
3,178000	-2,323440
3,179000	-2,317850
3,180000	-2,301082
3,181000	-2,279054
3,182000	-2,253409
3,183000	-2,222504
3,184000	-2,192256
3,185000	-2,174173
3,186000	-2,169570
3,187000	-2,172529
3,188000	-2,193243
3,189000	-2,220203
3,190000	-2,249793
3,191000	-2,278725
3,192000	-2,304370
3,193000	-2,327056
3,194000	-2,333632
3,195000	-2,337248
3,196000	-2,325741
3,197000	-2,306672
3,198000	-2,284643
3,199000	-2,257026
3,200000	-2,226449
3,201000	-2,196530
3,202000	-2,186009
3,203000	-2,181735
3,204000	-2,192256
3,205000	-2,215600
3,206000	-2,243217
3,207000	-2,274123
3,208000	-2,300425
3,209000	-2,327056
3,210000	-2,343166
3,211000	-2,348756
3,212000	-2,347769
3,213000	-2,332974
3,214000	-2,312919
3,215000	-2,288260
3,216000	-2,259327
3,217000	-2,227765
3,218000	-2,203435
3,219000	-2,197188
3,220000	-2,194558
3,221000	-2,212969
3,222000	-2,238285
3,223000	-2,266889
3,224000	-2,296808
3,225000	-2,322124
3,226000	-2,348098
3,227000	-2,358619
3,228000	-2,362236
3,229000	-2,356318
3,230000	-2,339221
3,231000	-2,317521
3,232000	-2,292534
3,233000	-2,261629
3,234000	-2,231710
3,235000	-2,213627
3,236000	-2,209682
3,237000	-2,212969
3,238000	-2,234011
3,239000	-2,260643
3,240000	-2,290233
3,241000	-2,318837
3,242000	-2,344810
3,243000	-2,366839
3,244000	-2,373414
3,245000	-2,376702
3,246000	-2,365195
3,247000	-2,346125
3,248000	-2,322782
3,249000	-2,296151
3,250000	-2,265574
3,251000	-2,235326
3,252000	-2,225463
3,253000	-2,220203
3,254000	-2,232039
3,255000	-2,256040
3,256000	-2,283657
3,257000	-2,314234
3,258000	-2,340865
3,259000	-2,367167
3,260000	-2,383278
3,261000	-2,387552
3,262000	-2,386565
3,263000	-2,371770
3,264000	-2,352372
3,265000	-2,327385
3,266000	-2,298123
3,267000	-2,266889
3,268000	-2,242888
3,269000	-2,236642
3,270000	-2,234669
3,271000	-2,253409
3,272000	-2,277739
3,273000	-2,306672
3,274000	-2,336920
3,275000	-2,362236
3,276000	-2,387223
3,277000	-2,397744
3,278000	-2,402347
3,279000	-2,396100
3,280000	-2,379003
3,281000	-2,356975
3,282000	-2,330673
3,283000	-2,301411
3,284000	-2,270506
3,285000	-2,253081
3,286000	-2,248806
3,287000	-2,252094
3,288000	-2,274123
3,289000	-2,301082
3,290000	-2,330344
3,291000	-2,359277
3,292000	-2,384593
3,293000	-2,406621
3,294000	-2,412868
3,295000	-2,415498
3,296000	-2,404319
3,297000	-2,384921
3,298000	-2,361907
3,299000	-2,334289
3,300000	-2,303713
3,301000	-2,274451
3,302000	-2,264917
3,303000	-2,260971
3,304000	-2,271821
3,305000	-2,295493
3,306000	-2,324097
3,307000	-2,355002
3,308000	-2,380976
3,309000	-2,406292
3,310000	-2,422402
3,311000	-2,427334
3,312000	-2,426019
3,313000	-2,411881
3,314000	-2,391168
3,315000	-2,366510
3,316000	-2,337906
3,317000	-2,306014
3,318000	-2,281684
3,319000	-2,276424
3,320000	-2,273465
3,321000	-2,292863
3,322000	-2,317850
3,323000	-2,347112
3,324000	-2,376702
3,325000	-2,402347
3,326000	-2,427334
3,327000	-2,437526
3,328000	-2,441472
3,329000	-2,435225
3,330000	-2,418786
3,331000	-2,396757
3,332000	-2,370126
3,333000	-2,339550
3,334000	-2,309302
3,335000	-2,292863
3,336000	-2,287931
3,337000	-2,292205
3,338000	-2,313576
3,339000	-2,339879
3,340000	-2,370126
3,341000	-2,399388
3,342000	-2,424704
3,343000	-2,446403
3,344000	-2,452650
3,345000	-2,454952
3,346000	-2,442787
3,347000	-2,423717
3,348000	-2,400703
3,349000	-2,373414
3,350000	-2,342509
3,351000	-2,313576
3,352000	-2,303713
3,353000	-2,300096
3,354000	-2,311603
3,355000	-2,335604
3,356000	-2,363551
3,357000	-2,393798
3,358000	-2,420430
3,359000	-2,446732
3,360000	-2,461527
3,361000	-2,467774
3,362000	-2,464486
3,363000	-2,450349
3,364000	-2,429636
3,365000	-2,404977
3,366000	-2,375716
3,367000	-2,343824
3,368000	-2,320809
3,369000	-2,315549
3,370000	-2,314891
3,371000	-2,332645
3,372000	-2,358290
3,373000	-2,386894
3,374000	-2,417142
3,375000	-2,441800
3,376000	-2,466788
3,377000	-2,477966
3,378000	-2,481254
3,379000	-2,474021
3,380000	-2,457253
3,381000	-2,434567
3,382000	-2,407936
3,383000	-2,378346
3,384000	-2,347769
3,385000	-2,331988
3,386000	-2,327385
3,387000	-2,330673
3,388000	-2,353687
3,389000	-2,380647
3,390000	-2,410566
3,391000	-2,438841
3,392000	-2,465144
3,393000	-2,484871
3,394000	-2,492104
3,395000	-2,494734
3,396000	-2,482569
3,397000	-2,463171
3,398000	-2,439828
3,399000	-2,412210
3,400000	-2,380976
3,401000	-2,352372
3,402000	-2,343166
3,403000	-2,340207
3,404000	-2,351386
3,405000	-2,375387
3,406000	-2,403333
3,407000	-2,434567
3,408000	-2,460212
3,409000	-2,486514
3,410000	-2,501310
3,411000	-2,507228
3,412000	-2,504269
3,413000	-2,488487
3,414000	-2,468103
3,415000	-2,443444
3,416000	-2,414512
3,417000	-2,383278
3,418000	-2,360263
3,419000	-2,354674
3,420000	-2,354016
3,421000	-2,372099
3,422000	-2,397086
3,423000	-2,426019
3,424000	-2,456267
3,425000	-2,481912
3,426000	-2,506570
3,427000	-2,515447
3,428000	-2,520379
3,429000	-2,512817
3,430000	-2,495063
3,431000	-2,473692
3,432000	-2,446075
3,433000	-2,416156
3,434000	-2,385908
3,435000	-2,370784
3,436000	-2,365523
3,437000	-2,371113
3,438000	-2,392812
3,439000	-2,420101
3,440000	-2,450349
3,441000	-2,477966
3,442000	-2,504269
3,443000	-2,524982
3,444000	-2,531229
3,445000	-2,532215
3,446000	-2,520050
3,447000	-2,501967
3,448000	-2,477637
3,449000	-2,450020
3,450000	-2,419115
3,451000	-2,390511
3,452000	-2,381962
3,453000	-2,378346
3,454000	-2,390511
3,455000	-2,415169
3,456000	-2,443115
3,457000	-2,473692
3,458000	-2,499994
3,459000	-2,525968
3,460000	-2,541092
3,461000	-2,546024
3,462000	-2,543722
3,463000	-2,527941
3,464000	-2,506899
3,465000	-2,482569
3,466000	-2,453965
3,467000	-2,421745
3,468000	-2,399059
3,469000	-2,393798
3,470000	-2,392812
3,471000	-2,411553
3,472000	-2,437526
3,473000	-2,466788
3,474000	-2,496378
3,475000	-2,521694
3,476000	-2,546681
3,477000	-2,555558
3,478000	-2,559504
3,479000	-2,552270
3,480000	-2,534516
3,481000	-2,512159
3,482000	-2,485528
3,483000	-2,455609
3,484000	-2,424704
3,485000	-2,409251
3,486000	-2,405635
3,487000	-2,410895
3,488000	-2,432923
3,489000	-2,460212
3,490000	-2,489473
3,491000	-2,517749
3,492000	-2,544051
3,493000	-2,564435
3,494000	-2,570025
3,495000	-2,572655
3,496000	-2,559175
3,497000	-2,540434
3,498000	-2,517091
3,499000	-2,488816
3,500000	-2,457253
3,501000	-2,428649
3,502000	-2,420758
3,503000	-2,417142
3,504000	-2,429964
3,505000	-2,454294
3,506000	-2,483227
3,507000	-2,512817
3,508000	-2,539119
3,509000	-2,564764
3,510000	-2,579888
3,511000	-2,584491
3,512000	-2,581532
3,513000	-2,566408
3,514000	-2,545366
3,515000	-2,520050
3,516000	-2,491117
3,517000	-2,459554
3,518000	-2,438184
3,519000	-2,431937
3,520000	-2,432923
3,521000	-2,450677
3,522000	-2,476980
3,523000	-2,505912
3,524000	-2,535174
3,525000	-2,560490
3,526000	-2,585806
3,527000	-2,595012
3,528000	-2,597971
3,529000	-2,590738
3,530000	-2,573641
3,531000	-2,551942
3,532000	-2,524982
3,533000	-2,495063
3,534000	-2,464815
3,535000	-2,449034
3,536000	-2,444759
3,537000	-2,450677
3,538000	-2,472048
3,539000	-2,499666
3,540000	-2,529585
3,541000	-2,558517
3,542000	-2,584491
3,543000	-2,603889
3,544000	-2,609149
3,545000	-2,611451
3,546000	-2,597971
3,547000	-2,579559
3,548000	-2,556216
3,549000	-2,527283
3,550000	-2,497035
3,551000	-2,468432
3,552000	-2,458897
3,553000	-2,456595
3,554000	-2,469747
3,555000	-2,494734
3,556000	-2,522023
3,557000	-2,553257
3,558000	-2,578244
3,559000	-2,604218
3,560000	-2,619670
3,561000	-2,623287
3,562000	-2,621314
3,563000	-2,604875
3,564000	-2,584162
3,565000	-2,558517
3,566000	-2,529585
3,567000	-2,498679
3,568000	-2,476980
3,569000	-2,472048
3,570000	-2,470404
3,571000	-2,490789
3,572000	-2,516433
3,573000	-2,545037
3,574000	-2,575285
3,575000	-2,600601
3,576000	-2,624931
3,577000	-2,634465
3,578000	-2,638740
3,579000	-2,629534
3,580000	-2,612108
3,581000	-2,589094
3,582000	-2,562134
3,583000	-2,532215
3,584000	-2,500981
3,585000	-2,488158
3,586000	-2,483227
3,587000	-2,489473
3,588000	-2,512159
3,589000	-2,538790
3,590000	-2,569038
3,591000	-2,596327
3,592000	-2,621972
3,593000	-2,642027
3,594000	-2,647617
3,595000	-2,648603
3,596000	-2,636438
3,597000	-2,616711
3,598000	-2,593697
3,599000	-2,564764
3,600000	-2,533530
3,601000	-2,506241
3,602000	-2,498351
3,603000	-2,495063
3,604000	-2,508543
3,605000	-2,533530
3,606000	-2,562134
3,607000	-2,591724
3,608000	-2,617698
3,609000	-2,643014
3,610000	-2,657480
3,611000	-2,661754
3,612000	-2,658795
3,613000	-2,643014
3,614000	-2,622629
3,615000	-2,597313
3,616000	-2,567723
3,617000	-2,535831
3,618000	-2,514461
3,619000	-2,509858
3,620000	-2,510187
3,621000	-2,529913
3,622000	-2,551284
3,623000	-2,578244
3,624000	-2,607177
3,625000	-2,631835
3,626000	-2,656165
3,627000	-2,665042
3,628000	-2,669316
3,629000	-2,660768
3,630000	-2,642356
3,631000	-2,619013
3,632000	-2,591724
3,633000	-2,563120
3,634000	-2,529256
3,635000	-2,516762
3,636000	-2,512488
3,637000	-2,518406
3,638000	-2,548983
3,639000	-2,576929
3,640000	-2,606848
3,641000	-2,637753
3,642000	-2,664056
3,643000	-2,682467
3,644000	-2,688714
3,645000	-2,690029
3,646000	-2,676549
3,647000	-2,656822
3,648000	-2,632164
3,649000	-2,603560
3,650000	-2,572326
3,651000	-2,545366
3,652000	-2,537804
3,653000	-2,534516
3,654000	-2,547996
3,655000	-2,573312
3,656000	-2,601259
3,657000	-2,631178
3,658000	-2,657151
3,659000	-2,682796
3,660000	-2,696276
3,661000	-2,702523
3,662000	-2,697262
3,663000	-2,681481
3,664000	-2,660110
3,665000	-2,635123
3,666000	-2,605862
3,667000	-2,574627
3,668000	-2,553914
3,669000	-2,548654
3,670000	-2,548654
3,671000	-2,569038
3,672000	-2,595012
3,673000	-2,623616
3,674000	-2,653863
3,675000	-2,679508
3,676000	-2,703180
3,677000	-2,711729
3,678000	-2,715016
3,679000	-2,706468
3,680000	-2,687728
3,681000	-2,666028
3,682000	-2,638740
3,683000	-2,607834
3,684000	-2,578244
3,685000	-2,564764
3,686000	-2,560819
3,687000	-2,567394
3,688000	-2,590738
3,689000	-2,618684
3,690000	-2,647288
3,691000	-2,674905
3,692000	-2,701208
3,693000	-2,720935
3,694000	-2,726524
3,695000	-2,727181
3,696000	-2,713373
3,697000	-2,694632
3,698000	-2,670631
3,699000	-2,642027
3,700000	-2,610793
3,701000	-2,584162
3,702000	-2,576929
3,703000	-2,572984
3,704000	-2,587779
3,705000	-2,612437
3,706000	-2,641370
3,707000	-2,670631
3,708000	-2,697262
3,709000	-2,722578
3,710000	-2,735730
3,711000	-2,740990
3,712000	-2,736387
3,713000	-2,720606
3,714000	-2,699564
3,715000	-2,674577
3,716000	-2,643671
3,717000	-2,613752
3,718000	-2,593368
3,719000	-2,587779
3,720000	-2,589094
3,721000	-2,608821
3,722000	-2,634465
3,723000	-2,663727
3,724000	-2,693317
3,725000	-2,718633
3,726000	-2,741976
3,727000	-2,750196
3,728000	-2,754470
3,729000	-2,745264
3,730000	-2,726524
3,731000	-2,704167
3,732000	-2,677207
3,733000	-2,646959
3,734000	-2,617040
3,735000	-2,603889
3,736000	-2,599615
3,737000	-2,607177
3,738000	-2,629863
3,739000	-2,657480
3,740000	-2,687399
3,741000	-2,715016
3,742000	-2,741976
3,743000	-2,760059
3,744000	-2,764991
3,745000	-2,765649
3,746000	-2,752826
3,747000	-2,733428
3,748000	-2,709427
3,749000	-2,680166
3,750000	-2,649261
3,751000	-2,622301
3,752000	-2,615725
3,753000	-2,612437
3,754000	-2,626575
3,755000	-2,651562
3,756000	-2,680495
3,757000	-2,711729
3,758000	-2,736387
3,759000	-2,762032
3,760000	-2,775512
3,761000	-2,778800
3,762000	-2,775841
3,763000	-2,758744
3,764000	-2,737702
3,765000	-2,712057
3,766000	-2,682796
3,767000	-2,651562
3,768000	-2,631506
3,769000	-2,627232
3,770000	-2,627232
3,771000	-2,647617
3,772000	-2,673919
3,773000	-2,703180
3,774000	-2,733099
3,775000	-2,757429
3,776000	-2,781430
3,777000	-2,789650
3,778000	-2,792609
3,779000	-2,783074
3,780000	-2,765320
3,781000	-2,741648
3,782000	-2,715345
3,783000	-2,684769
3,784000	-2,654850
3,785000	-2,642356
3,786000	-2,637096
3,787000	-2,645644
3,788000	-2,669316
3,789000	-2,696276
3,790000	-2,726853
3,791000	-2,753813
3,792000	-2,779786
3,793000	-2,798855
3,794000	-2,803787
3,795000	-2,804773
3,796000	-2,790965
3,797000	-2,771567
3,798000	-2,746908
3,799000	-2,718633
3,800000	-2,687399
3,801000	-2,661097
3,802000	-2,654192
3,803000	-2,650576
3,804000	-2,666357
3,805000	-2,691673
3,806000	-2,719619
3,807000	-2,750196
3,808000	-2,775183
3,809000	-2,800499
3,810000	-2,813650
3,811000	-2,817267
3,812000	-2,813322
3,813000	-2,797540
3,814000	-2,776170
3,815000	-2,750853
3,816000	-2,721263
3,817000	-2,689372
3,818000	-2,669645
3,819000	-2,664384
3,820000	-2,667015
3,821000	-2,686413
3,822000	-2,713044
3,823000	-2,742305
3,824000	-2,772553
3,825000	-2,797540
3,826000	-2,820226
3,827000	-2,828774
3,828000	-2,831405
3,829000	-2,821212
3,830000	-2,802801
3,831000	-2,780772
3,832000	-2,753484
3,833000	-2,723236
3,834000	-2,693317
3,835000	-2,681481
3,836000	-2,677207
3,837000	-2,685426
3,838000	-2,707783
3,839000	-2,735072
3,840000	-2,765649
3,841000	-2,792937
3,842000	-2,818253
3,843000	-2,836665
3,844000	-2,841925
3,845000	-2,841597
3,846000	-2,828446
3,847000	-2,808390
3,848000	-2,785047
3,849000	-2,755785
3,850000	-2,724880
3,851000	-2,698249
3,852000	-2,692002
3,853000	-2,689043
3,854000	-2,704824
3,855000	-2,730140
3,856000	-2,758744
3,857000	-2,788663
3,858000	-2,814308
3,859000	-2,839953
3,860000	-2,851789
3,861000	-2,856392
3,862000	-2,851460
3,863000	-2,835021
3,864000	-2,813650
3,865000	-2,788334
3,866000	-2,757758
3,867000	-2,727839
3,868000	-2,708112
3,869000	-2,702852
3,870000	-2,704824
3,871000	-2,725866
3,872000	-2,751840
3,873000	-2,781430
3,874000	-2,811349
3,875000	-2,836336
3,876000	-2,859022
3,877000	-2,866584
3,878000	-2,870201
3,879000	-2,860008
3,880000	-2,841597
3,881000	-2,818582
3,882000	-2,790965
3,883000	-2,761046
3,884000	-2,731127
3,885000	-2,719619
3,886000	-2,714359
3,887000	-2,723894
3,888000	-2,746579
3,889000	-2,775183
3,890000	-2,804773
3,891000	-2,832062
3,892000	-2,858036
3,893000	-2,875790
3,894000	-2,882037
3,895000	-2,881050
3,896000	-2,867570
3,897000	-2,847186
3,898000	-2,823514
3,899000	-2,794252
3,900000	-2,762361
3,901000	-2,737045
3,902000	-2,730798
3,903000	-2,729154
3,904000	-2,744278
3,905000	-2,769265
3,906000	-2,796883
3,907000	-2,827788
3,908000	-2,853104
3,909000	-2,879078
3,910000	-2,890585
3,911000	-2,895188
3,912000	-2,889927
3,913000	-2,873817
3,914000	-2,851460
3,915000	-2,826144
3,916000	-2,795896
3,917000	-2,765649
3,918000	-2,746251
3,919000	-2,740661
3,920000	-2,743292
3,921000	-2,764333
3,922000	-2,790636
3,923000	-2,820226
3,924000	-2,849816
3,925000	-2,875461
3,926000	-2,897818
3,927000	-2,905051
3,928000	-2,908668
3,929000	-2,897489
3,930000	-2,879078
3,931000	-2,856721
3,932000	-2,829432
3,933000	-2,798527
3,934000	-2,768608
3,935000	-2,757100
3,936000	-2,753484
3,937000	-2,762690
3,938000	-2,786033
3,939000	-2,813650
3,940000	-2,843898
3,941000	-2,871187
3,942000	-2,896503
3,943000	-2,914586
3,944000	-2,919517
3,945000	-2,919517
3,946000	-2,905051
3,947000	-2,884667
3,948000	-2,860666
3,949000	-2,831733
3,950000	-2,800499
3,951000	-2,775512
3,952000	-2,768608
3,953000	-2,766306
3,954000	-2,782416
3,955000	-2,807732
3,956000	-2,836665
3,957000	-2,865926
3,958000	-2,891571
3,959000	-2,917545
3,960000	-2,929381
3,961000	-2,933984
3,962000	-2,929052
3,963000	-2,912284
3,964000	-2,890256
3,965000	-2,864282
3,966000	-2,833706
3,967000	-2,803458
3,968000	-2,784718
3,969000	-2,780115
3,970000	-2,782745
3,971000	-2,803458
3,972000	-2,830089
3,973000	-2,858693
3,974000	-2,888283
3,975000	-2,913928
3,976000	-2,936614
3,977000	-2,943518
3,978000	-2,946477
3,979000	-2,935299
3,980000	-2,917216
3,981000	-2,894201
3,982000	-2,866913
3,983000	-2,836994
3,984000	-2,807075
3,985000	-2,795896
3,986000	-2,792280
3,987000	-2,801157
3,988000	-2,824500
3,989000	-2,852446
3,990000	-2,882365
3,991000	-2,909325
3,992000	-2,934970
3,993000	-2,952395
3,994000	-2,958642
3,995000	-2,956670
3,996000	-2,942861
3,997000	-2,922477
3,998000	-2,899133
3,999000	-2,869543
4,000000	-2,837651
4,001000	-2,812993
4,002000	-2,806417
4,003000	-2,804773
4,004000	-2,821212
4,005000	-2,846200
4,006000	-2,876447
4,007000	-2,905051
4,008000	-2,931025
4,009000	-2,956998
4,010000	-2,968506
4,011000	-2,972451
4,012000	-2,966862
4,013000	-2,949108
4,014000	-2,927408
4,015000	-2,902421
4,016000	-2,872173
4,017000	-2,841925
4,018000	-2,822856
4,019000	-2,817925
4,020000	-2,821541
4,021000	-2,841925
4,022000	-2,868228
4,023000	-2,897818
4,024000	-2,927079
4,025000	-2,952067
4,026000	-2,975081
4,027000	-2,982314
4,028000	-2,985273
4,029000	-2,973109
4,030000	-2,956012
4,031000	-2,932011
4,032000	-2,905051
4,033000	-2,874803
4,034000	-2,844884
4,035000	-2,833048
4,036000	-2,829432
4,037000	-2,839953
4,038000	-2,863625
4,039000	-2,891900
4,040000	-2,921161
4,041000	-2,948779
4,042000	-2,974752
4,043000	-2,990863
4,044000	-2,996781
4,045000	-2,995466
4,046000	-2,981328
4,047000	-2,960615
4,048000	-2,935628
4,049000	-2,907024
4,050000	-2,875461
4,051000	-2,851131
4,052000	-2,845213
4,053000	-2,843569
4,054000	-2,860666
4,055000	-2,885982
4,056000	-2,914586
4,057000	-2,943518
4,058000	-2,968834
4,059000	-2,994808
4,060000	-3,005329
4,061000	-3,010261
4,062000	-3,003356
4,063000	-2,986260
4,064000	-2,965547
4,065000	-2,939902
4,066000	-2,908339
4,067000	-2,878091
4,068000	-2,860008
4,069000	-2,855734
4,070000	-2,858693
4,071000	-2,880393
4,072000	-2,906695
4,073000	-2,935956
4,074000	-2,965218
4,075000	-2,990534
4,076000	-3,012562
4,077000	-3,019795
4,078000	-3,021439
4,079000	-3,010918
4,080000	-2,992178
4,081000	-2,969163
4,082000	-2,941875
4,083000	-2,910969
4,084000	-2,881708
4,085000	-2,872502
4,086000	-2,866913
4,087000	-2,877105
4,088000	-2,901435
4,089000	-2,929381
4,090000	-2,959300
4,091000	-2,986260
4,092000	-3,012233
4,093000	-3,029001
4,094000	-3,033275
4,095000	-3,032289
4,096000	-3,018809
4,097000	-2,993493
4,098000	-2,966862
4,099000	-2,936614
4,100000	-2,906695
4,101000	-2,881708
4,102000	-2,874803
4,103000	-2,872831
4,104000	-2,890256
4,105000	-2,915572
4,106000	-2,943847
4,107000	-2,974424
4,108000	-3,003685
4,109000	-3,023741
4,110000	-3,034590
4,111000	-3,039522
4,112000	-3,031303
4,113000	-3,023741
4,114000	-3,001055
4,115000	-2,975410
4,116000	-2,948121
4,117000	-2,917874
4,118000	-2,900119
4,119000	-2,895517
4,120000	-2,899462
4,121000	-2,920504
4,122000	-2,946806
4,123000	-2,975739
4,124000	-3,003685
4,125000	-3,028672
4,126000	-3,051358
4,127000	-3,058262
4,128000	-3,060893
4,129000	-3,049385
4,130000	-3,031631
4,131000	-3,007630
4,132000	-2,979684
4,133000	-2,949108
4,134000	-2,920175
4,135000	-2,909325
4,136000	-2,906038
4,137000	-2,916887
4,138000	-2,940559
4,139000	-2,968506
4,140000	-2,998425
4,141000	-3,025056
4,142000	-3,050701
4,143000	-3,066482
4,144000	-3,071742
4,145000	-3,070756
4,146000	-3,056290
4,147000	-3,035905
4,148000	-3,011247
4,149000	-2,982314
4,150000	-2,951080
4,151000	-2,926422
4,152000	-2,920833
4,153000	-2,919189
4,154000	-2,936943
4,155000	-2,962588
4,156000	-2,990534
4,157000	-3,020782
4,158000	-3,045111
4,159000	-3,071742
4,160000	-3,082263
4,161000	-3,086209
4,162000	-3,078976
4,163000	-3,062537
4,164000	-3,040837
4,165000	-3,014864
4,166000	-2,984287
4,167000	-2,954039
4,168000	-2,936943
4,169000	-2,932997
4,170000	-2,935628
4,171000	-2,957985
4,172000	-2,984287
4,173000	-3,013548
4,174000	-3,042810
4,175000	-3,068455
4,176000	-3,089825
4,177000	-3,096072
4,178000	-3,098374
4,179000	-3,086866
4,180000	-3,068126
4,181000	-3,044783
4,182000	-3,017494
4,183000	-2,986589
4,184000	-2,957656
4,185000	-2,948779
4,186000	-2,944834
4,187000	-2,955026
4,188000	-2,978698
4,189000	-3,007630
4,190000	-3,037221
4,191000	-3,063523
4,192000	-3,089168
4,193000	-3,105278
4,194000	-3,110538
4,195000	-3,109223
4,196000	-3,093771
4,197000	-3,073058
4,198000	-3,048728
4,199000	-3,020124
4,200000	-2,988561
4,201000	-2,964560
4,202000	-2,958313
4,203000	-2,956341
4,204000	-2,975410
4,205000	-3,000397
4,206000	-3,029659
4,207000	-3,058262
4,208000	-3,084565
4,209000	-3,109881
4,210000	-3,119415
4,211000	-3,124018
4,212000	-3,116456
4,213000	-3,100017
4,214000	-3,077989
4,215000	-3,051029
4,216000	-3,020782
4,217000	-2,991520
4,218000	-2,974095
4,219000	-2,970150
4,220000	-2,974095
4,221000	-2,995466
4,222000	-3,022754
4,223000	-3,052344
4,224000	-3,080291
4,225000	-3,106264
4,226000	-3,127635
4,227000	-3,134211
4,228000	-3,137170
4,229000	-3,124676
4,230000	-3,105936
4,231000	-3,082263
4,232000	-3,054975
4,233000	-3,023741
4,234000	-2,995137
4,235000	-2,986260
4,236000	-2,981657
4,237000	-2,993822
4,238000	-3,017494
4,239000	-3,045440
4,240000	-3,075359
4,241000	-3,101990
4,242000	-3,127635
4,243000	-3,143416
4,244000	-3,148348
4,245000	-3,146047
4,246000	-3,131580
4,247000	-3,110867
4,248000	-3,086866
4,249000	-3,056947
4,250000	-3,025056
4,251000	-3,002370
4,252000	-2,997438
4,253000	-2,994808
4,254000	-3,013548
4,255000	-3,038536
4,256000	-3,067797
4,257000	-3,096730
4,258000	-3,122046
4,259000	-3,147691
4,260000	-3,156896
4,261000	-3,161499
4,262000	-3,153609
4,263000	-3,137498
4,264000	-3,115141
4,265000	-3,088181
4,266000	-3,057934
4,267000	-3,029001
4,268000	-3,011576
4,269000	-3,007630
4,270000	-3,011576
4,271000	-3,033275
4,272000	-3,060893
4,273000	-3,090812
4,274000	-3,118429
4,275000	-3,144731
4,276000	-3,165116
4,277000	-3,172020
4,278000	-3,173335
4,279000	-3,161170
4,280000	-3,142430
4,281000	-3,119744
4,282000	-3,091798
4,283000	-3,060893
4,284000	-3,031631
4,285000	-3,023741
4,286000	-3,019795
4,287000	-3,030974
4,288000	-3,055303
4,289000	-3,083250
4,290000	-3,113169
4,291000	-3,140457
4,292000	-3,165445
4,293000	-3,179911
4,294000	-3,186486
4,295000	-3,183527
4,296000	-3,168404
4,297000	-3,148348
4,298000	-3,123690
4,299000	-3,095086
4,300000	-3,062537
4,301000	-3,040508
4,302000	-3,033604
4,303000	-3,033275
4,304000	-3,051358
4,305000	-3,076674
4,306000	-3,105936
4,307000	-3,135197
4,308000	-3,160842
4,309000	-3,186158
4,310000	-3,195692
4,311000	-3,198980
4,312000	-3,191747
4,313000	-3,174322
4,314000	-3,152951
4,315000	-3,126320
4,316000	-3,096072
4,317000	-3,065496
4,318000	-3,049714
4,319000	-3,045769
4,320000	-3,050043
4,321000	-3,072400
4,322000	-3,099031
4,323000	-3,129279
4,324000	-3,156896
4,325000	-3,182870
4,326000	-3,203912
4,327000	-3,208843
4,328000	-3,211474
4,329000	-3,198651
4,330000	-3,179253
4,331000	-3,156896
4,332000	-3,128621
4,333000	-3,098045
4,334000	-3,069770
4,335000	-3,060564
4,336000	-3,056947
4,337000	-3,069112
4,338000	-3,093771
4,339000	-3,121717
4,340000	-3,151965
4,341000	-3,177609
4,342000	-3,203583
4,343000	-3,218049
4,344000	-3,222652
4,345000	-3,221008
4,346000	-3,205227
4,347000	-3,184514
4,348000	-3,160184
4,349000	-3,131580
4,350000	-3,099360
4,351000	-3,077003
4,352000	-3,071414
4,353000	-3,070427
4,354000	-3,090154
4,355000	-3,114813
4,356000	-3,144403
4,357000	-3,174322
4,358000	-3,199309
4,359000	-3,222981
4,360000	-3,232844
4,361000	-3,236790
4,362000	-3,228899
4,363000	-3,211802
4,364000	-3,189774
4,365000	-3,163143
4,366000	-3,133224
4,367000	-3,102648
4,368000	-3,088181
4,369000	-3,083907
4,370000	-3,088510
4,371000	-3,111196
4,372000	-3,138156
4,373000	-3,167417
4,374000	-3,195035
4,375000	-3,221008
4,376000	-3,241721
4,377000	-3,247311
4,378000	-3,249612
4,379000	-3,236790
4,380000	-3,217721
4,381000	-3,194706
4,382000	-3,166760
4,383000	-3,134868
4,384000	-3,107579
4,385000	-3,098374
4,386000	-3,095743
4,387000	-3,107579
4,388000	-3,132238
4,389000	-3,160513
4,390000	-3,190761
4,391000	-3,216405
4,392000	-3,242050
4,393000	-3,256188
4,394000	-3,261119
4,395000	-3,258818
4,396000	-3,243037
4,397000	-3,222652
4,398000	-3,197994
4,399000	-3,168404
4,400000	-3,137498
4,401000	-3,114484
4,402000	-3,108895
4,403000	-3,107908
4,404000	-3,127964
4,405000	-3,153609
4,406000	-3,182212
4,407000	-3,211802
4,408000	-3,237119
4,409000	-3,261448
4,410000	-3,269996
4,411000	-3,274599
4,412000	-3,266380
4,413000	-3,248626
4,414000	-3,226926
4,415000	-3,200295
4,416000	-3,169719
4,417000	-3,140457
4,418000	-3,125005
4,419000	-3,121059
4,420000	-3,126320
4,421000	-3,148348
4,422000	-3,175637
4,423000	-3,205227
4,424000	-3,232844
4,425000	-3,259147
4,426000	-3,278873
4,427000	-3,284463
4,428000	-3,286107
4,429000	-3,273284
4,430000	-3,254544
4,431000	-3,231858
4,432000	-3,203583
4,433000	-3,172349
4,434000	-3,144731
4,435000	-3,136841
4,436000	-3,133224
4,437000	-3,145718
4,438000	-3,170376
4,439000	-3,198651
4,440000	-3,228241
4,441000	-3,254544
4,442000	-3,280846
4,443000	-3,293997
4,444000	-3,298600
4,445000	-3,296299
4,446000	-3,280846
4,447000	-3,260133
4,448000	-3,234488
4,449000	-3,205556
4,450000	-3,174979
4,451000	-3,152293
4,452000	-3,147362
4,453000	-3,146704
4,454000	-3,166102
4,455000	-3,192076
4,456000	-3,221008
4,457000	-3,250598
4,458000	-3,275914
4,459000	-3,300902
4,460000	-3,308135
4,461000	-3,312409
4,462000	-3,304189
4,463000	-3,286764
4,464000	-3,265065
4,465000	-3,237447
4,466000	-3,207528
4,467000	-3,177281
4,468000	-3,162157
4,469000	-3,158869
4,470000	-3,164787
4,471000	-3,186815
4,472000	-3,213775
4,473000	-3,243694
4,474000	-3,271312
4,475000	-3,296628
4,476000	-3,316354
4,477000	-3,322272
4,478000	-3,323259
4,479000	-3,311094
4,480000	-3,291696
4,481000	-3,269339
4,482000	-3,240078
4,483000	-3,209172
4,484000	-3,182541
4,485000	-3,173664
4,486000	-3,170705
4,487000	-3,184185
4,488000	-3,208515
4,489000	-3,236790
4,490000	-3,266709
4,491000	-3,292353
4,492000	-3,318327
4,493000	-3,333451
4,494000	-3,336410
4,495000	-3,333122
4,496000	-3,317669
4,497000	-3,295970
4,498000	-3,271312
4,499000	-3,241393
4,500000	-3,210487
4,501000	-3,189445
4,502000	-3,184843
4,503000	-3,184843
4,504000	-3,203583
4,505000	-3,230214
4,506000	-3,258160
4,507000	-3,289066
4,508000	-3,313724
4,509000	-3,338383
4,510000	-3,345944
4,511000	-3,349232
4,512000	-3,341342
4,513000	-3,323259
4,514000	-3,301230
4,515000	-3,273613
4,516000	-3,245009
4,517000	-3,214433
4,518000	-3,200295
4,519000	-3,196021
4,520000	-3,201939
4,521000	-3,223967
4,522000	-3,252242
4,523000	-3,282161
4,524000	-3,310108
4,525000	-3,335095
4,526000	-3,354164
4,527000	-3,360740
4,528000	-3,361726
4,529000	-3,348575
4,530000	-3,329506
4,531000	-3,306162
4,532000	-3,277230
4,533000	-3,246324
4,534000	-3,219364
4,535000	-3,211145
4,536000	-3,208515
4,537000	-3,221337
4,538000	-3,245996
4,539000	-3,273942
4,540000	-3,303861
4,541000	-3,330492
4,542000	-3,355479
4,543000	-3,369288
4,544000	-3,373233
4,545000	-3,369617
4,546000	-3,353835
4,547000	-3,333451
4,548000	-3,307477
4,549000	-3,277887
4,550000	-3,247311
4,551000	-3,226269
4,552000	-3,220351
4,553000	-3,221666
4,554000	-3,240735
4,555000	-3,266709
4,556000	-3,296299
4,557000	-3,325889
4,558000	-3,349890
4,559000	-3,374219
4,560000	-3,382768
4,561000	-3,385727
4,562000	-3,377179
4,563000	-3,359424
4,564000	-3,337067
4,565000	-3,309779
4,566000	-3,279860
4,567000	-3,249941
4,568000	-3,236132
4,569000	-3,232187
4,570000	-3,238762
4,571000	-3,262106
4,572000	-3,285778
4,573000	-3,312080
4,574000	-3,340026
4,575000	-3,366000
4,576000	-3,385727
4,577000	-3,390001
4,578000	-3,390001
4,579000	-3,377507
4,580000	-3,358109
4,581000	-3,334108
4,582000	-3,306491
4,583000	-3,279860
4,584000	-3,248297
4,585000	-3,240406
4,586000	-3,235146
4,587000	-3,249283
4,588000	-3,279202
4,589000	-3,310765
4,590000	-3,340355
4,591000	-3,366658
4,592000	-3,394604
4,593000	-3,408741
4,594000	-3,412687
4,595000	-3,409399
4,596000	-3,393617
4,597000	-3,372247
4,598000	-3,346931
4,599000	-3,315368
4,600000	-3,285120
4,601000	-3,263750
4,602000	-3,259804
4,603000	-3,260791
4,604000	-3,279531
4,605000	-3,305505
4,606000	-3,333780
4,607000	-3,363699
4,608000	-3,388686
4,609000	-3,412687
4,610000	-3,420577
4,611000	-3,424851
4,612000	-3,415317
4,613000	-3,397234
4,614000	-3,374877
4,615000	-3,347917
4,616000	-3,318327
4,617000	-3,287751
4,618000	-3,274928
4,619000	-3,269668
4,620000	-3,277558
4,621000	-3,299915
4,622000	-3,327204
4,623000	-3,357781
4,624000	-3,385398
4,625000	-3,411043
4,626000	-3,429454
4,627000	-3,435044
4,628000	-3,436359
4,629000	-3,422550
4,630000	-3,402495
4,631000	-3,379151
4,632000	-3,350547
4,633000	-3,320300
4,634000	-3,293340
4,635000	-3,285778
4,636000	-3,282819
4,637000	-3,297285
4,638000	-3,321615
4,639000	-3,350876
4,640000	-3,380138
4,641000	-3,405454
4,642000	-3,431756
4,643000	-3,444249
4,644000	-3,448852
4,645000	-3,444907
4,646000	-3,429126
4,647000	-3,408413
4,648000	-3,382768
4,649000	-3,352849
4,650000	-3,321615
4,651000	-3,301888
4,652000	-3,296628
4,653000	-3,296956
4,654000	-3,317341
4,655000	-3,343643
4,656000	-3,372247
4,657000	-3,402166
4,658000	-3,426824
4,659000	-3,450496
4,660000	-3,458387
4,661000	-3,462004
4,662000	-3,452798
4,663000	-3,434386
4,664000	-3,412029
4,665000	-3,385069
4,666000	-3,355150
4,667000	-3,324574
4,668000	-3,311751
4,669000	-3,307806
4,670000	-3,315697
4,671000	-3,338054
4,672000	-3,365342
4,673000	-3,395590
4,674000	-3,422879
4,675000	-3,448195
4,676000	-3,467264
4,677000	-3,472196
4,678000	-3,472853
4,679000	-3,458716
4,680000	-3,439647
4,681000	-3,415974
4,682000	-3,387371
4,683000	-3,356465
4,684000	-3,329506
4,685000	-3,322930
4,686000	-3,319313
4,687000	-3,334766
4,688000	-3,358767
4,689000	-3,387699
4,690000	-3,417947
4,691000	-3,442606
4,692000	-3,469237
4,693000	-3,482059
4,694000	-3,486333
4,695000	-3,481730
4,696000	-3,465949
4,697000	-3,444578
4,698000	-3,418933
4,699000	-3,389015
4,700000	-3,357781
4,701000	-3,338383
4,702000	-3,333780
4,703000	-3,335095
4,704000	-3,355150
4,705000	-3,381124
4,706000	-3,410056
4,707000	-3,439318
4,708000	-3,464634
4,709000	-3,488306
4,710000	-3,496197
4,711000	-3,499484
4,712000	-3,489621
4,713000	-3,472196
4,714000	-3,448524
4,715000	-3,421564
4,716000	-3,392302
4,717000	-3,361726
4,718000	-3,349890
4,719000	-3,345287
4,720000	-3,353506
4,721000	-3,375535
4,722000	-3,403810
4,723000	-3,432742
4,724000	-3,460688
4,725000	-3,486662
4,726000	-3,504745
4,727000	-3,509348
4,728000	-3,510663
4,729000	-3,497183
4,730000	-3,477456
4,731000	-3,453455
4,732000	-3,424851
4,733000	-3,393289
4,734000	-3,366986
4,735000	-3,361068
4,736000	-3,356794
4,737000	-3,372904
4,738000	-3,397563
4,739000	-3,425509
4,740000	-3,455428
4,741000	-3,480086
4,742000	-3,507046
4,743000	-3,518554
4,744000	-3,523156
4,745000	-3,518225
4,746000	-3,503101
4,747000	-3,480744
4,748000	-3,456414
4,749000	-3,426167
4,750000	-3,394933
4,751000	-3,374877
4,752000	-3,371260
4,753000	-3,372247
4,754000	-3,392302
4,755000	-3,419262
4,756000	-3,447866
4,757000	-3,477127
4,758000	-3,502115
4,759000	-3,525458
4,760000	-3,533677
4,761000	-3,536308
4,762000	-3,526444
4,763000	-3,507704
4,764000	-3,486004
4,765000	-3,458716
4,766000	-3,428797
4,767000	-3,398220
4,768000	-3,385398
4,769000	-3,382110
4,770000	-3,390658
4,771000	-3,413344
4,772000	-3,440962
4,773000	-3,471209
4,774000	-3,498498
4,775000	-3,523814
4,776000	-3,542226
4,777000	-3,547486
4,778000	-3,547486
4,779000	-3,533349
4,780000	-3,513951
4,781000	-3,489950
4,782000	-3,461017
4,783000	-3,430441
4,784000	-3,404467
4,785000	-3,397563
4,786000	-3,394604
4,787000	-3,410385
4,788000	-3,435372
4,789000	-3,463647
4,790000	-3,493238
4,791000	-3,518225
4,792000	-3,545185
4,793000	-3,557349
4,794000	-3,560637
4,795000	-3,556363
4,796000	-3,539924
4,797000	-3,518882
4,798000	-3,493566
4,799000	-3,462990
4,800000	-3,432742
4,801000	-3,412029
4,802000	-3,408084
4,803000	-3,409728
4,804000	-3,430112
4,805000	-3,457072
4,806000	-3,485347
4,807000	-3,514608
4,808000	-3,539595
4,809000	-3,562939
4,810000	-3,570501
4,811000	-3,574446
4,812000	-3,562939
4,813000	-3,545185
4,814000	-3,522499
4,815000	-3,495210
4,816000	-3,466278
4,817000	-3,435372
4,818000	-3,423536
4,819000	-3,419591
4,820000	-3,427811
4,821000	-3,450825
4,822000	-3,478771
4,823000	-3,509019
4,824000	-3,534993
4,825000	-3,560966
4,826000	-3,579378
4,827000	-3,583652
4,828000	-3,584309
4,829000	-3,570501
4,830000	-3,550445
4,831000	-3,526444
4,832000	-3,497840
4,833000	-3,466278
4,834000	-3,440633
4,835000	-3,434057
4,836000	-3,431098
4,837000	-3,447537
4,838000	-3,472853
4,839000	-3,500799
4,840000	-3,530390
4,841000	-3,555706
4,842000	-3,582337
4,843000	-3,593186
4,844000	-3,598447
4,845000	-3,593186
4,846000	-3,576419
4,847000	-3,554719
4,848000	-3,529403
4,849000	-3,498827
4,850000	-3,468908
4,851000	-3,449510
4,852000	-3,445565
4,853000	-3,447537
4,854000	-3,468250
4,855000	-3,494224
4,856000	-3,523156
4,857000	-3,552089
4,858000	-3,577405
4,859000	-3,600748
4,860000	-3,607653
4,861000	-3,611598
4,862000	-3,599762
4,863000	-3,582337
4,864000	-3,558993
4,865000	-3,532034
4,866000	-3,502772
4,867000	-3,472524
4,868000	-3,461017
4,869000	-3,456743
4,870000	-3,465620
4,871000	-3,489292
4,872000	-3,516581
4,873000	-3,546829
4,874000	-3,573460
4,875000	-3,599104
4,876000	-3,615543
4,877000	-3,621133
4,878000	-3,620804
4,879000	-3,606666
4,880000	-3,587268
4,881000	-3,563268
4,882000	-3,534335
4,883000	-3,503101
4,884000	-3,477785
4,885000	-3,470881
4,886000	-3,469237
4,887000	-3,484689
4,888000	-3,509677
4,889000	-3,538609
4,890000	-3,568199
4,891000	-3,592529
4,892000	-3,618831
4,893000	-3,630338
4,894000	-3,634941
4,895000	-3,630010
4,896000	-3,612584
4,897000	-3,591214
4,898000	-3,565898
4,899000	-3,535650
4,900000	-3,505402
4,901000	-3,486662
4,902000	-3,481402
4,903000	-3,484361
4,904000	-3,504745
4,905000	-3,531376
4,906000	-3,560309
4,907000	-3,589241
4,908000	-3,614886
4,909000	-3,637572
4,910000	-3,644476
4,911000	-3,647764
4,912000	-3,636914
4,913000	-3,618174
4,914000	-3,595488
4,915000	-3,568528
4,916000	-3,538280
4,917000	-3,508690
4,918000	-3,497183
4,919000	-3,493895
4,920000	-3,502443
4,921000	-3,526115
4,922000	-3,554062
4,923000	-3,583323
4,924000	-3,610612
4,925000	-3,635928
4,926000	-3,653353
4,927000	-3,658285
4,928000	-3,657627
4,929000	-3,643818
4,930000	-3,623434
4,931000	-3,599762
4,932000	-3,571158
4,933000	-3,539595
4,934000	-3,514937
4,935000	-3,507704
4,936000	-3,506060
4,937000	-3,522499
4,938000	-3,547815
4,939000	-3,575761
4,940000	-3,605351
4,941000	-3,631325
4,942000	-3,656641
4,943000	-3,667490
4,944000	-3,672093
4,945000	-3,666175
4,946000	-3,649736
4,947000	-3,628695
4,948000	-3,602721
4,949000	-3,572145
4,950000	-3,541897
4,951000	-3,523814
4,952000	-3,519540
4,953000	-3,521841
4,954000	-3,542883
4,955000	-3,569186
4,956000	-3,599762
4,957000	-3,628037
4,958000	-3,653682
4,959000	-3,676039
4,960000	-3,682943
4,961000	-3,685902
4,962000	-3,674724
4,963000	-3,656641
4,964000	-3,632640
4,965000	-3,605680
4,966000	-3,574775
4,967000	-3,545513
4,968000	-3,534993
4,969000	-3,529732
4,970000	-3,539267
4,971000	-3,563596
4,972000	-3,591214
4,973000	-3,620146
4,974000	-3,648093
4,975000	-3,673409
4,976000	-3,689847
4,977000	-3,695765
4,978000	-3,694450
4,979000	-3,679984
4,980000	-3,659929
4,981000	-3,636256
4,982000	-3,606995
4,983000	-3,574775
4,984000	-3,551103
4,985000	-3,544527
4,986000	-3,542226
4,987000	-3,559322
4,988000	-3,584638
4,989000	-3,613242
4,990000	-3,643161
4,991000	-3,667819
4,992000	-3,692806
4,993000	-3,704314
4,994000	-3,709245
4,995000	-3,702670
4,996000	-3,686560
4,997000	-3,664203
4,998000	-3,638558
4,999000	-3,607981
