557, 524, 481, 467, 473, 466, 476, 473, 476, 462, 489, 857, 1023, 1023, 411, 314, 424, 438, 443, 452, 452, 465, 473, 484, 496, 500, 515, 516, 
528, 563, 576, 600, 587, 567, 535, 476, 439, 421, 428, 434, 429, 442, 438, 441, 447, 443, 452, 449, 453, 458, 453, 464, 460, 463, 468, 462, 472, 468, 469, 474, 468, 477, 474, 476, 481, 474, 484, 479, 481, 487, 480, 527, 564, 580, 579, 544, 514, 476, 470, 476, 468, 478, 472, 475, 453, 545, 1023, 1023, 885, 326, 346, 436, 439, 445, 454, 452, 469, 473, 486, 500, 500, 517, 516, 536, 568, 580, 599, 581, 558, 521, 460, 432, 422, 429, 435, 431, 442, 439, 443, 447, 443, 454, 449, 454, 460, 455, 465, 460, 
464, 468, 463, 472, 466, 470, 475, 471, 481, 476, 479, 481, 476, 484, 480, 484, 488, 484, 543, 571, 583, 576, 538, 504, 474, 469, 472, 475, 476, 475, 473, 452, 630, 1023, 1023, 689, 290, 372, 444, 439, 448, 456, 455, 475, 476, 490, 501, 504, 521, 518, 545, 572, 586, 599, 574, 549, 507, 449, 429, 425, 432, 436, 432, 443, 437, 442, 448, 446, 456, 451, 453, 457, 455, 466, 459, 464, 467, 464, 473, 467, 473, 476, 471, 480, 476, 479, 481, 476, 487, 480, 485, 485, 492, 556, 574, 583, 568, 525, 494, 471, 
471, 472, 468, 480, 472, 464, 468, 735, 1023, 1023, 524, 299, 400, 447, 441, 451, 455, 454, 477, 479, 494, 504, 507, 522, 523, 555, 576, 590, 598, 571, 540, 492, 437, 427, 424, 431, 433, 432, 443, 437, 444, 447, 444, 454, 449, 455, 457, 457, 467, 461, 465, 467, 465, 473, 467, 473, 475, 472, 480, 475, 479, 480, 477, 487, 480, 485, 485, 507, 564, 575, 581, 559, 514, 485, 467, 470, 472, 468, 479, 473, 459, 501, 869, 1023, 1023, 388, 324, 417, 446, 441, 452, 453, 457, 479, 481, 498, 507, 508, 520, 526, 
561, 580, 592, 595, 564, 534, 478, 431, 428, 428, 433, 436, 435, 443, 438, 446, 448, 445, 455, 451, 459, 459, 457, 464, 460, 467, 467, 464, 474, 466, 473, 475, 471, 480, 476, 481, 480, 477, 487, 480, 485, 487, 523, 573, 576, 577, 548, 501, 482, 466, 471, 473, 469, 478, 471, 453, 563, 1023, 1023, 851, 315, 356, 431, 449, 444, 454, 457, 462, 480, 482, 499, 508, 509, 524, 536, 571, 588, 593, 588, 554, 520, 464, 423, 431, 426, 436, 435, 433, 444, 440, 448, 448, 447, 456, 448, 459, 459, 455, 465, 460, 
466, 465, 465, 474, 468, 476, 473, 472, 480, 475, 480, 481, 478, 486, 480, 484, 489, 538, 575, 577, 573, 540, 493, 479, 468, 473, 471, 470, 479, 467, 455, 652, 1023, 1023, 660, 291, 382, 436, 445, 445, 456, 460, 465, 478, 486, 503, 509, 510, 526, 543, 572, 590, 591, 580, 545, 506, 452, 420, 432, 428, 436, 438, 438, 447, 440, 450, 451, 448, 458, 452, 460, 459, 456, 466, 460, 468, 467, 467, 473, 468, 476, 474, 473, 480, 475, 484, 482, 479, 488, 481, 489, 500, 551, 580, 578, 569, 528, 484, 476, 466, 
475, 472, 472, 478, 460, 474, 756, 1023, 1023, 493, 304, 407, 441, 448, 446, 459, 460, 468, 485, 491, 517, 508, 506, 530, 552, 578, 592, 590, 576, 535, 494, 441, 420, 433, 428, 437, 436, 436, 445, 441, 451, 449, 447, 455, 448, 460, 459, 456, 464, 460, 468, 466, 467, 473, 467, 477, 473, 474, 479, 473, 483, 478, 480, 486, 480, 488, 514, 560, 581, 576, 558, 515, 480, 475, 465, 475, 470, 472, 478, 452, 516, 899, 1023, 1023, 371, 332, 423, 441, 449, 446, 460, 463, 472, 488, 492, 508, 510, 513, 535, 560, 
586, 595, 587, 569, 524, 479, 429, 422, 432, 428, 439, 436, 437, 446, 441, 452, 448, 450, 457, 452, 461, 457, 458, 465, 461, 471, 465, 467, 474, 470, 479, 474, 474, 481, 474, 482, 479, 481, 486, 480, 489, 528, 570, 585, 572, 552, 504, 477, 473, 465, 476, 471, 473, 480, 446, 576, 1023, 1023, 832, 304, 363, 435, 442, 449, 447, 461, 464, 476, 491, 492, 511, 511, 519, 540, 562, 590, 592, 584, 560, 524, 465, 425, 423, 433, 429, 440, 436, 441, 447, 440, 451, 448, 450, 456, 450, 463, 458, 461, 465, 460, 
470, 466, 468, 474, 468, 477, 472, 475, 481, 473, 485, 480, 481, 485, 480, 494, 542, 572, 584, 567, 540, 492, 475, 471, 466, 477, 473, 473, 472, 450, 668, 1023, 1023, 643, 284, 392, 439, 443, 449, 448, 463, 466, 480, 493, 498, 514, 514, 522, 550, 566, 596, 593, 576, 549, 497, 455, 421, 426, 432, 430, 439, 437, 443, 447, 442, 453, 449, 452, 456, 450, 464, 460, 463, 466, 461, 473, 467, 470, 474, 469, 479, 474, 476, 480, 477, 484, 481, 484, 486, 482, 508, 553, 579, 584, 560, 529, 485, 473, 472, 467, 
479, 472, 476, 464, 468, 780, 1023, 1023, 482, 298, 413, 439, 444, 452, 448, 465, 471, 482, 494, 497, 515, 513, 525, 558, 572, 596, 588, 572, 539, 482, 444, 420, 436, 434, 432, 444, 434, 442, 446, 444, 453, 448, 453, 459, 452, 463, 459, 463, 465, 462, 472, 467, 473, 476, 468, 478, 473, 479, 480, 476, 485, 478, 484, 485, 481, 521, 560, 579, 579, 549, 518, 477, 472, 470, 468, 477, 473, 478, 458, 515, 932, 1023, 999, 364, 327, 432, 441, 446, 452, 449, 469, 474, 486, 499, 501, 517, 515, 533, 564, 578, 
600, 587, 567, 528, 470, 436, 423, 432, 433, 432, 442, 437, 439, 446, 443, 449, 449, 455, 456, 452, 463, 458, 463, 465, 460, 472, 465, 471, 473, 470, 479, 473, 479, 480, 476, 485, 480, 486, 487, 481, 536, 567, 583, 578, 544, 507, 473, 472, 472, 466, 476, 471, 476, 451, 580, 1023, 1023, 802, 305, 360, 441, 439, 447, 454, 452, 470, 475, 491, 501, 504, 517, 516, 543, 566, 583, 598, 577, 557, 515, 456, 429, 424, 433, 436, 431, 443, 436, 444, 447, 442, 453, 448, 457, 459, 455, 464, 460, 464, 466, 464, 
472, 467, 475, 474, 469, 479, 472, 481, 480, 476, 484, 479, 484, 484, 488, 549, 569, 582, 572, 532, 499, 471, 471, 472, 468, 479, 472, 472, 456, 675, 1023, 1023, 619, 292, 388, 444, 439, 448, 455, 455, 474, 476, 495, 503, 504, 520, 519, 550, 573, 588, 598, 572, 548, 500, 445, 427, 425, 434, 434, 434, 444, 436, 445, 445, 444, 453, 451, 456, 457, 456, 464, 457, 476, 468, 464, 474, 467, 476, 474, 471, 480, 473, 481, 480, 478, 485, 480, 486, 485, 499, 561, 573, 583, 562, 523, 492, 469, 473, 473, 469, 
478, 472, 464, 477, 791, 1023, 1023, 460, 308, 410, 446, 439, 452, 453, 457, 476, 478, 496, 506, 508, 522, 521, 560, 579, 592, 596, 567, 539, 486, 435, 428, 425, 434, 436, 433, 444, 437, 446, 447, 444, 454, 448, 456, 458, 455, 465, 459, 467, 466, 465, 474, 467, 473, 473, 473, 481, 474, 480, 480, 478, 488, 482, 488, 485, 516, 567, 576, 580, 555, 511, 485, 467, 475, 472, 471, 479, 473, 455, 524, 943, 1023, 969, 353, 336, 425, 446, 439, 454, 455, 461, 480, 480, 498, 507, 509, 524, 528, 564, 583, 592, 
589, 560, 529, 472, 428, 428, 424, 433, 434, 434, 444, 436, 447, 447, 446, 455, 450, 456, 459, 458, 465, 459, 467, 466, 466, 476, 468, 476, 476, 464, 480, 473, 480, 480, 478, 485, 480, 488, 485, 530, 577, 579, 578, 543, 500, 480, 466, 473, 472, 471, 479, 472, 452, 598, 1023, 1023, 771, 300, 368, 436, 448, 443, 455, 456, 464, 483, 484, 503, 507, 509, 523, 538, 569, 588, 593, 586, 550, 516, 459, 423, 431, 427, 436, 434, 436, 446, 439, 448, 446, 448, 456, 451, 461, 460, 459, 466, 460, 468, 466, 466, 
476, 468, 478, 476, 476, 481, 472, 483, 480, 480, 488, 480, 488, 493, 546, 579, 579, 572, 534, 491, 477, 467, 474, 473, 472, 480, 464, 462, 692, 1023, 1023, 590, 292, 393, 437, 447, 445, 456, 458, 467, 485, 485, 505, 506, 515, 528, 547, 576, 591, 590, 579, 540, 500, 445, 421, 433, 426, 436, 436, 437, 445, 439, 450, 448, 448, 457, 450, 460, 457, 458, 465, 460, 468, 465, 467, 476, 468, 476, 473, 475, 481, 475, 482, 477, 482, 486, 480, 489, 504, 555, 581, 576, 564, 521, 483, 475, 464, 473, 472, 472, 
480, 457, 485, 812, 1023, 1023, 437, 316, 413, 440, 448, 446, 458, 458, 471, 487, 488, 507, 509, 516, 532, 555, 582, 593, 590, 573, 529, 486, 435, 423, 432, 427, 436, 436, 439, 446, 443, 450, 448, 451, 457, 450, 460, 456, 459, 467, 460, 468, 466, 467, 475, 468, 476, 473, 475, 480, 474, 483, 480, 482, 488, 481, 491, 517, 564, 585, 573, 557, 508, 478, 476, 466, 476, 472, 474, 480, 448, 537, 980, 1023, 953, 338, 347, 430, 443, 452, 451, 462, 464, 474, 489, 492, 509, 508, 516, 537, 560, 588, 593, 584, 
565, 520, 473, 428, 422, 433, 428, 439, 436, 435, 444, 441, 452, 447, 451, 455, 450, 461, 457, 459, 465, 460, 470, 466, 468, 475, 469, 478, 473, 476, 480, 475, 484, 479, 480, 486, 481, 492, 534, 570, 585, 568, 544, 497, 474, 474, 464, 474, 471, 474, 476, 444, 613, 1023, 1023, 743, 290, 374, 434, 441, 449, 448, 463, 467, 477, 492, 494, 511, 510, 514, 546, 564, 594, 589, 579, 557, 507, 461, 424, 427, 436, 431, 441, 436, 441, 448, 444, 453, 449, 453, 460, 453, 463, 457, 461, 469, 463, 473, 467, 469, 
476, 470, 478, 475, 476, 482, 473, 484, 479, 480, 484, 479, 496, 544, 573, 584, 563, 537, 489, 473, 473, 468, 477, 473, 476, 472, 458, 713, 1023, 1023, 572, 288, 402, 437, 442, 451, 451, 464, 466, 480, 493, 497, 514, 513, 524, 555, 568, 596, 590, 573, 546, 492, 449, 421, 428, 435, 429, 442, 437, 443, 447, 443, 454, 448, 452, 458, 453, 464, 458, 463, 467, 461, 472, 466, 469, 474, 470, 478, 474, 476, 479, 476, 484, 476, 481, 485, 481, 511, 553, 577, 581, 556, 524, 481, 471, 471, 465, 477, 470, 476, 
462, 484, 839, 1023, 1023, 426, 311, 423, 436, 444, 452, 451, 466, 470, 484, 496, 500, 517, 514, 529, 561, 574, 598, 588, 567, 534, 477, 440, 423, 424, 435, 432, 444, 437, 442, 445, 441, 454, 448, 452, 457, 453, 464, 459, 463, 464, 462, 471, 465, 468, 473, 469, 481, 474, 478, 481, 477, 487, 480, 484, 485, 482, 527, 563, 580, 577, 548, 516, 478, 472, 473, 468, 479, 472, 475, 452, 540, 1019, 1023, 911, 331, 340, 437, 441, 448, 453, 452, 470, 473, 486, 499, 501, 518, 516, 536, 566, 582, 601, 581, 563, 
523, 463, 432, 420, 430, 429, 422, 440, 429, 444, 447, 445, 453, 449, 453, 456, 453, 464, 457, 465, 467, 464, 473, 467, 472, 473, 469, 480, 474, 480, 481, 476, 487, 481, 484, 484, 484, 541, 566, 582, 572, 539, 505, 473, 470, 471, 468, 478, 472, 476, 451, 617, 1023, 1023, 722, 292, 369, 444, 440, 450, 453, 452, 472, 475, 492, 500, 505, 517, 516, 545, 572, 588, 599, 577, 553, 510, 450, 429, 424, 432, 434, 432, 443, 438, 446, 447, 444, 455, 448, 458, 457, 456, 464, 460, 468, 467, 465, 474, 460, 475, 
473, 469, 479, 472, 480, 480, 476, 484, 479, 487, 485, 493, 555, 573, 585, 567, 528, 496, 469, 472, 471, 469, 480, 473, 469, 464, 720, 1023, 1023, 547, 293, 398, 444, 438, 449, 452, 454, 475, 477, 494, 501, 506, 522, 520, 556, 574, 590, 598, 570, 544, 496, 443, 428, 426, 435, 435, 434, 442, 436, 446, 445, 445, 455, 451, 458, 458, 455, 467, 459, 466, 465, 464, 474, 467, 475, 472, 472, 482, 475, 482, 480, 477, 487, 480, 487, 484, 508, 564, 575, 584, 559, 519, 488, 468, 473, 471, 469, 479, 470, 462, 
496, 851, 1023, 1023, 410, 319, 418, 448, 443, 455, 455, 460, 479, 480, 496, 502, 507, 521, 525, 562, 579, 592, 592, 562, 535, 476, 430, 427, 426, 435, 433, 434, 444, 437, 445, 444, 444, 453, 448, 458, 454, 456, 465, 459, 466, 466, 464, 473, 465, 475, 471, 471, 480, 472, 483, 479, 479, 486, 480, 488, 485, 524, 571, 576, 578, 548, 507, 483, 466, 474, 472, 471, 479, 470, 457, 552, 1023, 1023, 877, 326, 348, 431, 447, 443, 455, 455, 463, 481, 481, 501, 507, 511, 524, 534, 570, 586, 595, 589, 556, 524, 
464, 425, 428, 426, 437, 436, 436, 445, 438, 448, 447, 448, 455, 448, 459, 456, 459, 464, 459, 468, 466, 467, 472, 466, 475, 472, 474, 479, 473, 480, 477, 480, 487, 481, 490, 488, 537, 576, 579, 576, 538, 497, 479, 467, 476, 470, 471, 477, 467, 454, 634, 1023, 1023, 684, 295, 377, 437, 444, 444, 458, 456, 466, 480, 485, 505, 507, 513, 524, 540, 574, 589, 593, 583, 548, 510, 452, 422, 430, 427, 438, 436, 437, 444, 439, 450, 446, 449, 456, 451, 460, 457, 460, 467, 460, 469, 466, 466, 473, 468, 476, 
472, 474, 479, 475, 483, 479, 480, 484, 478, 490, 496, 549, 577, 576, 569, 528, 489, 475, 467, 474, 470, 475, 480, 460, 471, 739, 1023, 1023, 521, 301, 402, 441, 445, 444, 459, 460, 472, 484, 489, 508, 508, 516, 527, 551, 580, 592, 595, 576, 537, 496, 441, 424, 432, 428, 438, 435, 439, 444, 439, 450, 447, 451, 454, 450, 462, 460, 460, 465, 453, 468, 465, 468, 471, 466, 477, 472, 476, 480, 475, 485, 479, 483, 485, 479, 489, 508, 560, 580, 574, 561, 516, 482, 475, 466, 477, 471, 474, 478, 453, 505, 
868, 1023, 1023, 386, 327, 420, 441, 445, 444, 459, 460, 474, 487, 490, 508, 509, 517, 532, 556, 586, 593, 589, 567, 525, 480, 428, 423, 431, 428, 439, 435, 440, 445, 441, 452, 445, 452, 456, 449, 460, 456, 461, 464, 460, 470, 464, 469, 471, 466, 474, 471, 475, 480, 475, 484, 480, 484, 487, 481, 490, 523, 567, 582, 572, 552, 504, 479, 472, 466, 477, 473, 476, 478, 448, 566, 1023, 1023, 857, 310, 358, 432, 445, 449, 449, 460, 463, 478, 489, 495, 513, 509, 519, 539, 563, 592, 593, 584, 561, 516, 468, 
424, 427, 428, 428, 441, 436, 444, 447, 442, 452, 447, 452, 456, 452, 462, 457, 465, 464, 461, 471, 467, 471, 475, 468, 478, 472, 477, 480, 473, 484, 478, 484, 484, 481, 495, 539, 573, 583, 566, 542, 492, 477, 473, 468, 477, 469, 476, 473, 446, 654, 1023, 1023, 667, 287, 389, 436, 444, 448, 451, 461, 465, 480, 492, 498, 513, 509, 524, 548, 565, 595, 592, 581, 550, 500, 456, 420, 431, 431, 429, 438, 433, 442, 444, 443, 452, 448, 455, 457, 452, 462, 455, 461, 465, 464, 471, 465, 471, 473, 468, 479, 
473, 478, 478, 476, 487, 474, 484, 484, 483, 504, 550, 578, 581, 560, 532, 484, 475, 471, 468, 476, 471, 477, 464, 465, 758, 1023, 1023, 504, 295, 411, 436, 445, 450, 452, 464, 467, 484, 494, 499, 515, 513, 529, 556, 572, 598, 588, 576, 538, 485, 444, 417, 430, 434, 431, 442, 436, 445, 444, 444, 452, 446, 455, 453, 456, 464, 456, 465, 465, 462, 472, 464, 472, 474, 471, 480, 475, 481, 481, 479, 487, 479, 486, 485, 483, 518, 553, 580, 576, 553, 522, 479, 474, 471, 469, 478, 471, 477, 455, 505, 900, 
1023, 1023, 376, 324, 428, 438, 447, 451, 452, 466, 468, 487, 496, 503, 516, 514, 534, 560, 577, 599, 585, 569, 528, 474, 437, 420, 432, 433, 432, 444, 436, 447, 444, 446, 454, 448, 456, 454, 454, 462, 458, 467, 464, 465, 473, 464, 475, 472, 473, 481, 480, 481, 479, 478, 486, 479, 487, 484, 484, 532, 563, 584, 573, 545, 507, 468, 476, 469, 469, 476, 468, 477, 449, 568, 1023, 1023, 829, 308, 356, 440, 438, 451, 451, 456, 469, 472, 490, 497, 507, 517, 517, 542, 564, 586, 598, 579, 561, 516, 461, 430, 
421, 433, 431, 435, 441, 436, 445, 444, 447, 452, 446, 459, 456, 457, 465, 458, 467, 464, 465, 472, 465, 472, 471, 472, 480, 473, 480, 477, 478, 484, 479, 486, 481, 489, 546, 567, 583, 567, 535, 500, 471, 471, 468, 471, 478, 471, 472, 451, 661, 1023, 1023, 644, 287, 385, 443, 438, 452, 452, 458, 472, 474, 495, 500, 508, 518, 518, 553, 570, 590, 596, 573, 549, 500, 448, 427, 424, 436, 432, 435, 442, 436, 447, 444, 446, 452, 447, 459, 454, 458, 463, 460, 468, 464, 466, 472, 464, 476, 469, 472, 480, 
470, 483, 477, 479, 485, 480, 487, 481, 500, 558, 572, 585, 561, 526, 491, 468, 475, 469, 471, 477, 469, 468, 469, 773, 1023, 1023, 482, 301, 412, 446, 441, 455, 452, 460, 476, 478, 496, 500, 509, 519, 521, 561, 573, 593, 593, 567, 544, 486, 439, 428, 427, 438, 432, 437, 443, 439, 448, 444, 448, 453, 448, 458, 455, 460, 465, 461, 470, 464, 468, 472, 468, 477, 471, 476, 480, 474, 484, 479, 483, 485, 481, 490, 482, 516, 565, 576, 585, 553, 516, 484, 468, 476, 467, 471, 476, 471, 459, 514, 921, 1023, 
999, 364, 328, 428, 444, 441, 456, 448, 461, 476, 480, 500, 501, 514, 520, 527, 565, 577, 595, 588, 559, 532, 470, 430, 425, 425, 436, 431, 436, 440, 438, 448, 445, 450, 452, 451, 460, 454, 459, 463, 460, 468, 462, 468, 470, 468, 478, 471, 476, 479, 474, 483, 477, 481, 484, 479, 489, 483, 531, 572, 578, 580, 542, 503, 478, 467, 475, 467, 473, 478, 471, 456, 581, 1023, 1023, 791, 308, 359, 436, 443, 444, 456, 452, 466, 477, 484, 504, 505, 516, 523, 537, 571, 583, 597, 583, 552, 520, 458, 426, 427, 
426, 437, 432, 438, 443, 439, 451, 444, 449, 452, 448, 460, 453, 460, 460, 460, 468, 464, 469, 471, 467, 477, 471, 476, 479, 475, 484, 479, 484, 484, 481, 492, 491, 546, 575, 580, 575, 532, 493, 476, 468, 476, 469, 476, 477, 467, 463, 677, 1023, 1023, 609, 295, 388, 442, 443, 447, 459, 456, 471, 480, 489, 508, 506, 517, 524, 548, 578, 588, 596, 579, 543, 503, 444, 424, 428, 429, 439, 433, 439, 439, 438, 450, 445, 452, 452, 450, 460, 455, 461, 462, 460, 469, 463, 469, 470, 468, 477, 470, 477, 476, 
476, 481, 476, 483, 483, 481, 488, 498, 559, 576, 576, 566, 520, 488, 471, 467, 476, 469, 477, 475, 458, 480, 793, 1023, 1023, 452, 313, 410, 444, 444, 447, 460, 459, 477, 484, 492, 508, 507, 520, 527, 555, 582, 591, 592, 571, 532, 489, 432, 425, 428, 428, 435, 432, 444, 440, 439, 449, 445, 453, 453, 451, 460, 456, 464, 462, 461, 469, 464, 473, 469, 469, 477, 473, 480, 479, 478, 484, 477, 486, 483, 481, 491, 515, 568, 580, 577, 558, 508, 483, 469, 467, 475, 469, 480, 476, 450, 532, 949, 1023, 969, 
346, 341, 426, 447, 445, 448, 457, 460, 479, 485, 493, 508, 507, 521, 532, 560, 587, 592, 590, 560, 521, 473, 425, 428, 428, 431, 439, 435, 443, 444, 443, 451, 446, 453, 452, 452, 461, 455, 464, 463, 462, 469, 463, 473, 469, 470, 477, 469, 480, 476, 476, 482, 476, 487, 481, 484, 491, 532, 575, 580, 572, 548, 497, 480, 468, 468, 476, 469, 480, 472, 447, 602, 1023, 1023, 764, 296, 372, 433, 446, 445, 448, 460, 463, 481, 488, 499, 511, 511, 526, 540, 568, 591, 591, 585, 552, 510, 461, 420, 430, 428, 
432, 440, 433, 444, 442, 444, 452, 445, 457, 452, 455, 460, 454, 467, 463, 465, 471, 464, 475, 471, 472, 479, 470, 480, 476, 479, 484, 479, 487, 483, 485, 498, 544, 578, 580, 568, 537, 487, 478, 468, 471, 475, 470, 481, 468, 460, 698, 1023, 1023, 585, 290, 396, 435, 449, 447, 453, 462, 466, 484, 488, 503, 511, 509, 526, 547, 572, 594, 590, 580, 543, 498, 448, 418, 435, 430, 434, 439, 434, 446, 442, 444, 449, 444, 454, 452, 456, 460, 455, 466, 460, 465, 468, 464, 475, 470, 473, 476, 471, 480, 476, 
480, 482, 477, 485, 480, 483, 507, 553, 580, 577, 560, 526, 481, 476, 468, 471, 475, 470, 480, 459, 483, 819, 1023, 1023, 436, 311, 418, 437, 448, 449, 454, 463, 468, 487, 492, 505, 513, 514, 533, 556, 580, 598, 588, 575, 532, 484, 439, 419, 433, 429, 434, 439, 435, 446, 443, 446, 450, 446, 456, 451, 457, 461, 455, 465, 462, 468, 469, 466, 477, 469, 472, 476, 471, 483, 477, 481, 481, 479, 488, 483, 488, 522, 561, 585, 576, 552, 513, 474, 475, 467, 473, 476, 471, 480, 450, 537, 988, 1023, 944, 336, 
343, 431, 439, 450, 449, 455, 465, 472, 491, 494, 508, 516, 516, 539, 560, 585, 598, 582, 565, 520, 471, 431, 420, 436, 430, 436, 439, 436, 448, 443, 450, 452, 448, 458, 452, 458, 460, 457, 468, 461, 468, 468, 467, 476, 469, 477, 477, 474, 484, 477, 483, 483, 477, 487, 481, 488, 536, 567, 586, 569, 545, 500, 471, 472, 465, 471, 474, 469, 476, 444, 612, 1023, 1023, 737, 288, 372, 438, 438, 451, 449, 459, 468, 474, 492, 493, 508, 516, 517, 547, 564, 592, 596, 576, 556, 506, 460, 426, 424, 435, 429, 
439, 442, 440, 448, 441, 449, 452, 448, 458, 452, 461, 460, 460, 468, 462, 470, 469, 466, 476, 469, 476, 476, 474, 480, 476, 482, 483, 481, 487, 481, 500, 548, 572, 586, 565, 533, 492, 469, 474, 467, 476, 474, 473, 472, 459, 714, 1023, 1023, 568, 288, 402, 440, 441, 453, 448, 462, 471, 476, 495, 496, 510, 516, 521, 557, 571, 596, 593, 572, 547, 492, 448, 422, 426, 435, 429, 437, 438, 437, 448, 441, 451, 450, 451, 459, 453, 460, 460, 460, 468, 461, 469, 470, 468, 477, 470, 478, 476, 473, 484, 475, 
484, 482, 481, 488, 481, 510, 557, 571, 584, 555, 521, 483, 470, 474, 466, 475, 473, 474, 463, 484, 843, 1023, 1023, 421, 310, 421, 442, 443, 455, 450, 463, 474, 482, 499, 498, 513, 516, 525, 562, 573, 596, 588, 564, 538, 477, 437, 423, 428, 435, 430, 440, 439, 441, 449, 444, 452, 449, 450, 458, 452, 461, 461, 460, 467, 460, 471, 468, 468, 476, 468, 478, 477, 476, 481, 476, 486, 481, 482, 487, 480, 526, 566, 580, 584, 545, 523, 477, 471, 475, 467, 476, 476, 476, 456, 540, 1023, 1023, 902, 332, 342, 
435, 441, 445, 457, 451, 468, 476, 488, 501, 501, 517, 521, 534, 567, 581, 599, 584, 559, 524, 461, 431, 423, 429, 436, 430, 441, 439, 443, 448, 443, 452, 450, 453, 459, 454, 464, 460, 462, 468, 464, 474, 469, 470, 476, 469, 477, 475, 477, 481, 476, 484, 480, 483, 488, 484, 540, 569, 580, 574, 536, 502, 474, 469, 474, 460, 468, 473, 469, 453, 620, 1023, 1023, 706, 294, 370, 441, 441, 447, 456, 454, 471, 476, 489, 501, 500, 519, 520, 545, 573, 587, 600, 577, 550, 511, 450, 428, 426, 432, 435, 433, 
444, 439, 443, 449, 444, 453, 451, 455, 460, 456, 465, 460, 463, 470, 462, 474, 468, 473, 476, 471, 480, 474, 477, 481, 476, 487, 482, 484, 488, 492, 555, 573, 581, 570, 525, 494, 470, 468, 473, 468, 478, 475, 465, 467, 720, 1023, 1023, 539, 298, 399, 448, 443, 449, 459, 456, 474, 479, 492, 505, 506, 520, 520, 552, 576, 588, 596, 572, 540, 495, 440, 428, 427, 432, 436, 433, 443, 440, 443, 448, 443, 452, 451, 452, 457, 452, 462, 458, 463, 468, 463, 472, 468, 470, 475, 471, 480, 474, 480, 483, 480, 
489, 481, 484, 488, 505, 564, 576, 580, 560, 515, 487, 469, 471, 472, 468, 479, 472, 457, 498, 854, 1023, 1023, 406, 323, 418, 448, 443, 452, 457, 459, 479, 483, 496, 507, 508, 523, 527, 561, 582, 591, 592, 565, 534, 482, 430, 428, 428, 433, 436, 434, 445, 439, 444, 448, 444, 455, 449, 457, 457, 454, 461, 459, 466, 468, 466, 474, 468, 475, 476, 471, 480, 476, 481, 482, 477, 485, 479, 487, 486, 521, 572, 576, 578, 552, 505, 481, 465, 471, 474, 469, 480, 473, 454, 556, 1023, 1023, 872, 321, 352, 429, 
447, 444, 456, 458, 462, 481, 484, 498, 506, 507, 523, 532, 567, 586, 592, 588, 555, 520, 464, 423, 429, 425, 436, 436, 435, 446, 438, 448, 449, 448, 455, 449, 458, 459, 456, 468, 460, 468, 467, 465, 474, 467, 475, 475, 473, 482, 475, 482, 480, 478, 487, 480, 486, 488, 533, 575, 577, 572, 539, 493, 480, 464, 471, 473, 470, 480, 468, 453, 637, 1023, 1023, 684, 292, 381, 436, 447, 443, 454, 456, 464, 484, 487, 502, 508, 514, 528, 544, 572, 592, 592, 583, 547, 508, 453, 422, 433, 428, 437, 439, 438, 
447, 441, 450, 449, 448, 457, 450, 460, 459, 457, 466, 460, 468, 467, 467, 476, 468, 474, 475, 473, 481, 474, 481, 479, 480, 487, 479, 489, 498, 548, 579, 576, 567, 526, 487, 476, 465, 473, 473, 472, 479, 461, 468, 742, 1023, 1023, 516, 300, 403, 441, 446, 444, 457, 458, 468, 484, 489, 505, 508, 517, 527, 550, 578, 593, 591, 577, 536, 496, 441, 421, 431, 428, 439, 436, 437, 446, 442, 450, 448, 449, 458, 451, 460, 460, 460, 466, 460, 468, 466, 468, 474, 467, 476, 474, 476, 481, 473, 481, 480, 480, 
485, 480, 488, 508, 560, 583, 575, 561, 516, 482, 476, 465, 474, 472, 476, 480, 451, 506, 876, 1023, 1023, 380, 324, 420, 439, 448, 444, 457, 460, 472, 487, 489, 508, 509, 517, 539, 557, 585, 594, 588, 569, 527, 480, 432, 423, 433, 428, 439, 435, 438, 446, 440, 449, 447, 450, 457, 452, 462, 459, 460, 465, 461, 470, 466, 470, 476, 468, 476, 473, 476, 481, 475, 485, 480, 480, 485, 481, 488, 524, 565, 583, 570, 550, 504, 476, 474, 465, 475, 471, 475, 478, 448, 567, 1023, 1023, 852, 311, 359, 434, 444, 
449, 448, 460, 464, 476, 491, 494, 510, 510, 518, 540, 561, 591, 592, 575, 561, 505, 461, 423, 424, 433, 429, 441, 435, 439, 445, 441, 452, 447, 452, 457, 450, 462, 458, 460, 465, 461, 471, 465, 468, 474, 468, 480, 474, 476, 480, 476, 484, 478, 481, 484, 480, 494, 540, 571, 583, 567, 541, 494, 475, 474, 465, 476, 470, 475, 473, 447, 657, 1023, 1023, 665, 285, 391, 439, 444, 451, 448, 462, 466, 480, 493, 498, 513, 511, 524, 550, 568, 596, 593, 579, 550, 499, 455, 420, 427, 429, 431, 440, 436, 443, 
446, 444, 455, 448, 452, 458, 454, 463, 458, 460, 466, 463, 474, 465, 471, 474, 469, 480, 472, 479, 480, 476, 484, 477, 481, 485, 481, 503, 550, 576, 582, 560, 532, 483, 472, 472, 467, 477, 469, 474, 464, 464, 764, 1023, 1023, 498, 297, 413, 438, 443, 452, 451, 464, 468, 481, 495, 500, 514, 511, 524, 555, 571, 598, 588, 572, 540, 484, 445, 419, 428, 432, 431, 442, 438, 445, 446, 444, 453, 446, 454, 456, 453, 466, 459, 463, 467, 462, 471, 465, 471, 473, 470, 480, 473, 477, 480, 475, 487, 479, 485, 
485, 479, 524, 560, 580, 580, 551, 519, 478, 472, 470, 468, 477, 472, 477, 456, 508, 916, 1023, 1021, 374, 325, 430, 437, 448, 453, 451, 468, 471, 487, 496, 503, 517, 516, 533, 563, 576, 600, 586, 567, 529, 472, 438, 420, 432, 433, 433, 444, 436, 444, 445, 444, 454, 448, 455, 456, 453, 464, 460, 466, 464, 462, 472, 464, 472, 473, 470, 480, 474, 480, 480, 478, 486, 480, 486, 485, 483, 532, 564, 583, 582, 536, 509, 476, 472, 471, 470, 477, 472, 476, 449, 572, 1023, 1023, 812, 304, 356, 441, 439, 448, 
452, 452, 469, 473, 490, 498, 503, 518, 517, 542, 567, 584, 601, 580, 560, 518, 458, 431, 420, 431, 433, 432, 442, 435, 445, 446, 444, 452, 448, 456, 455, 454, 464, 458, 464, 464, 462, 473, 467, 472, 470, 469, 478, 472, 481, 480, 477, 487, 479, 484, 484, 490, 548, 568, 584, 569, 536, 500, 472, 469, 471, 470, 478, 472, 473, 452, 666, 1023, 1023, 630, 288, 383, 444, 441, 449, 452, 458, 475, 477, 494, 502, 506, 519, 518, 552, 571, 588, 597, 572, 549, 500, 446, 428, 424, 435, 433, 434, 444, 439, 448, 
447, 447, 455, 451, 459, 457, 457, 464, 459, 466, 465, 464, 472, 465, 476, 472, 472, 480, 474, 481, 480, 478, 485, 477, 487, 484, 499, 560, 573, 585, 562, 523, 490, 466, 472, 469, 469, 477, 472, 464, 474, 780, 1023, 1023, 473, 304, 409, 444, 439, 452, 452, 457, 475, 478, 498, 503, 508, 523, 523, 560, 576, 592, 595, 566, 540, 486, 435, 427, 423, 435, 434, 436, 445, 437, 448, 445, 444, 454, 448, 457, 455, 457, 464, 460, 470, 466, 465, 473, 467, 475, 471, 471, 479, 473, 482, 480, 480, 485, 480, 489, 
485, 515, 568, 574, 581, 552, 511, 482, 467, 475, 470, 470, 477, 472, 459, 522, 934, 1023, 983, 361, 332, 426, 445, 441, 453, 453, 460, 471, 472, 496, 504, 505, 532, 525, 564, 580, 592, 588, 558, 530, 471, 429, 428, 426, 436, 436, 435, 444, 437, 449, 446, 447, 453, 448, 460, 456, 458, 465, 460, 469, 465, 468, 473, 467, 478, 473, 475, 480, 476, 484, 481, 481, 484, 481, 489, 485, 531, 572, 577, 579, 543, 500, 480, 467, 476, 472, 471, 476, 468, 454, 588, 1023, 1023, 780, 306, 363, 435, 444, 443, 458, 
457, 465, 480, 484, 503, 506, 514, 524, 538, 572, 588, 594, 585, 552, 519, 456, 427, 428, 427, 437, 433, 438, 445, 439, 451, 445, 449, 454, 451, 460, 457, 459, 463, 458, 468, 464, 468, 471, 466, 476, 473, 476, 478, 473, 482, 479, 480, 484, 478, 489, 491, 545, 576, 579, 573, 535, 494, 477, 464, 475, 470, 473, 477, 464, 460, 681, 1023, 1023, 600, 296, 391, 439, 445, 442, 457, 456, 468, 482, 487, 505, 507, 516, 524, 547, 578, 592, 595, 579, 541, 503, 444, 421, 428, 426, 437, 433, 438, 444, 441, 452, 
447, 450, 456, 450, 462, 457, 459, 464, 459, 467, 464, 467, 472, 466, 478, 470, 473, 477, 473, 483, 476, 479, 484, 481, 490, 502, 557, 580, 576, 565, 522, 484, 476, 466, 476, 471, 475, 479, 459, 485, 803, 1023, 1023, 446, 313, 412, 444, 444, 444, 457, 459, 474, 485, 489, 508, 508, 518, 530, 554, 581, 591, 592, 573, 532, 491, 435, 423, 429, 428, 438, 436, 440, 444, 440, 449, 446, 452, 455, 451, 460, 455, 460, 464, 460, 468, 464, 470, 473, 468, 479, 473, 476, 480, 476, 484, 480, 484, 486, 481, 489, 
516, 565, 580, 574, 555, 507, 480, 471, 465, 476, 471, 475, 478, 449, 534, 955, 1023, 962, 341, 344, 426, 444, 448, 446, 460, 461, 478, 486, 493, 512, 508, 522, 537, 563, 589, 592, 588, 564, 521, 475, 424, 426, 432, 428, 439, 435, 442, 444, 441, 452, 447, 454, 456, 451, 461, 457, 463, 463, 460, 470, 464, 470, 471, 467, 477, 472, 479, 480, 476, 484, 476, 484, 484, 480, 492, 528, 571, 580, 570, 548, 497, 478, 473, 468, 478, 471, 477, 476, 448, 606, 1023, 1023, 754, 292, 372, 434, 446, 448, 447, 461, 
464, 479, 488, 496, 513, 511, 522, 544, 565, 593, 592, 584, 555, 508, 460, 421, 428, 432, 429, 439, 435, 442, 445, 443, 453, 447, 455, 453, 452, 462, 455, 463, 464, 460, 471, 465, 471, 473, 468, 479, 471, 480, 481, 476, 484, 478, 485, 484, 483, 497, 544, 576, 585, 565, 539, 488, 476, 472, 468, 476, 469, 477, 469, 456, 701, 1023, 1023, 581, 289, 400, 436, 446, 447, 449, 463, 466, 482, 492, 498, 511, 511, 527, 551, 568, 594, 589, 575, 543, 494, 450, 417, 430, 432, 432, 441, 434, 444, 443, 443, 451, 
443, 454, 454, 454, 463, 456, 464, 464, 463, 472, 465, 473, 472, 471, 480, 473, 481, 479, 478, 485, 479, 486, 485, 484, 510, 553, 579, 579, 557, 525, 479, 473, 470, 468, 475, 468, 478, 460, 483, 825, 1023, 1023, 432, 309, 420, 436, 445, 450, 452, 465, 468, 487, 492, 502, 518, 514, 532, 556, 578, 594, 588, 573, 534, 482, 442, 419, 433, 432, 432, 443, 436, 446, 445, 448, 453, 448, 456, 455, 448, 461, 453, 464, 463, 464, 470, 463, 472, 471, 469, 479, 472, 480, 478, 477, 485, 477, 486, 484, 483, 524, 
560, 585, 577, 551, 516, 475, 475, 469, 469, 477, 471, 478, 451, 536, 1000, 1023, 936, 337, 340, 435, 439, 450, 450, 453, 468, 472, 490, 496, 504, 516, 515, 539, 564, 583, 600, 581, 565, 523, 468, 432, 420, 433, 432, 434, 442, 436, 445, 444, 445, 452, 448, 457, 454, 455, 464, 458, 467, 465, 465, 474, 466, 473, 471, 473, 479, 473, 481, 476, 477, 484, 476, 486, 485, 485, 540, 567, 585, 571, 539, 504, 472, 473, 468, 470, 476, 470, 477, 448, 611, 1023, 1023, 737, 292, 370, 440, 438, 448, 452, 457, 472, 
474, 493, 499, 507, 519, 518, 547, 567, 588, 597, 576, 556, 508, 456, 429, 421, 436, 432, 436, 441, 436, 447, 444, 446, 452, 446, 457, 453, 456, 464, 457, 468, 463, 466, 472, 464, 475, 468, 473, 478, 472, 480, 478, 478, 484, 478, 486, 481, 493, 552, 570, 586, 564, 531, 495, 470, 475, 468, 472, 479, 472, 472, 458, 710, 1023, 1023, 562, 290, 397, 444, 440, 454, 452, 459, 476, 478, 497, 500, 510, 519, 521, 556, 572, 591, 596, 571, 548, 494, 444, 426, 424, 435, 432, 433, 442, 436, 447, 444, 448, 452, 
449, 458, 453, 457, 463, 459, 468, 463, 465, 471, 466, 476, 470, 475, 478, 474, 483, 476, 480, 484, 479, 486, 483, 508, 560, 573, 582, 557, 520, 486, 468, 475, 468, 474, 478, 471, 463, 489, 838, 1023, 1023, 422, 311, 420, 446, 441, 457, 452, 460, 476, 477, 499, 501, 508, 518, 524, 564, 577, 595, 592, 564, 538, 477, 434, 425, 426, 436, 431, 436, 441, 436, 449, 443, 452, 461, 448, 458, 452, 459, 464, 458, 469, 462, 466, 471, 467, 477, 471, 476, 478, 474, 484, 476, 481, 484, 478, 489, 484, 524, 569, 
576, 583, 548, 508, 480, 467, 475, 468, 473, 478, 473, 457, 543, 1019, 1023, 904, 333, 342, 430, 444, 443, 457, 452, 464, 477, 481, 501, 504, 516, 523, 532, 570, 582, 594, 588, 558, 526, 466, 428, 427, 428, 437, 432, 436, 442, 438, 449, 444, 449, 452, 447, 460, 451, 461, 463, 458, 469, 464, 468, 471, 466, 478, 473, 476, 476, 473, 483, 478, 483, 484, 480, 490, 485, 538, 572, 577, 576, 538, 500, 478, 467, 475, 469, 475, 477, 470, 454, 620, 1023, 1023, 710, 296, 371, 438, 444, 445, 458, 455, 468, 477, 
485, 505, 504, 515, 523, 540, 573, 585, 596, 579, 547, 514, 452, 424, 427, 428, 440, 435, 438, 443, 441, 451, 444, 451, 453, 451, 461, 456, 462, 464, 460, 471, 464, 467, 471, 468, 477, 471, 477, 478, 475, 485, 478, 484, 484, 481, 490, 492, 552, 576, 578, 571, 528, 492, 473, 465, 476, 469, 476, 476, 463, 468, 717, 1023, 1023, 542, 299, 397, 443, 444, 444, 457, 457, 473, 480, 487, 507, 505, 517, 526, 548, 578, 591, 595, 573, 537, 498, 441, 424, 428, 429, 438, 434, 441, 440, 439, 449, 445, 452, 453, 
452, 461, 452, 461, 460, 458, 468, 462, 469, 469, 466, 471, 472, 479, 478, 476, 485, 477, 484, 481, 479, 488, 503, 559, 577, 576, 562, 516, 487, 474, 468, 477, 471, 479, 476, 454, 499, 848, 1023, 1023, 404, 323, 419, 445, 444, 448, 458, 459, 476, 484, 491, 508, 508, 521, 529, 556, 582, 592, 591, 567, 528, 483, 429, 423, 428, 428, 439, 432, 443, 444, 442, 451, 444, 452, 452, 452, 462, 455, 463, 462, 461, 469, 463, 470, 470, 468, 476, 471, 479, 477, 476, 483, 477, 485, 483, 481, 488, 522, 571, 581, 
576, 555, 505, 483, 469, 468, 476, 470, 484, 476, 448, 556, 1023, 1023, 888, 319, 352, 428, 444, 446, 448, 460, 460, 480, 487, 495, 511, 511, 524, 536, 562, 588, 591, 588, 560, 516, 470, 424, 428, 429, 431, 439, 434, 444, 444, 443, 451, 446, 456, 453, 452, 462, 455, 465, 463, 463, 471, 464, 472, 470, 470, 476, 470, 479, 477, 477, 484, 478, 486, 483, 483, 492, 534, 575, 581, 570, 544, 494, 488, 470, 468, 476, 468, 477, 472, 446, 636, 1023, 1023, 697, 288, 380, 433, 446, 448, 450, 460, 464, 483, 491, 
499, 513, 509, 525, 544, 567, 592, 590, 582, 549, 506, 457, 420, 429, 428, 432, 437, 433, 445, 444, 444, 451, 445, 455, 454, 454, 460, 456, 465, 462, 463, 471, 463, 473, 470, 470, 476, 471, 481, 478, 478, 484, 479, 485, 482, 483, 501, 545, 578, 580, 564, 532, 485, 477, 469, 469, 478, 470, 480, 466, 464, 734, 1023, 1023, 531, 293, 407, 436, 448, 449, 452, 463, 467, 484, 491, 501, 516, 509, 528, 552, 573, 597, 589, 578, 539, 489, 445, 418, 432, 430, 434, 441, 435, 447, 444, 446, 450, 445, 458, 452, 
456, 462, 454, 465, 463, 464, 470, 471, 475, 469, 473, 478, 473, 480, 478, 479, 483, 477, 488, 481, 484, 514, 556, 583, 577, 557, 522, 477, 475, 468, 471, 476, 471, 479, 455, 499, 868, 1023, 1023, 397, 319, 425, 440, 451, 448, 454, 465, 470, 489, 495, 504, 515, 514, 535, 559, 580, 599, 584, 569, 530, 477, 436, 419, 432, 429, 434, 443, 436, 447, 442, 447, 453, 448, 457, 452, 455, 464, 456, 467, 464, 465, 473, 465, 474, 469, 473, 477, 465, 482, 479, 480, 484, 477, 485, 480, 485, 528, 562, 585, 574, 
548, 512, 475, 475, 467, 472, 477, 469, 479, 448, 555, 1023, 1023, 872, 316, 352, 436, 436, 449, 451, 455, 468, 471, 492, 495, 506, 516, 516, 543, 563, 585, 597, 580, 564, 516, 465, 430, 421, 434, 432, 435, 440, 435, 447, 443, 447, 451, 448, 458, 453, 458, 463, 457, 467, 461, 468, 469, 466, 475, 469, 474, 477, 474, 484, 477, 481, 484, 479, 487, 481, 490, 540, 567, 587, 569, 539, 501, 472, 475, 468, 473, 477, 472, 476, 448, 639, 1023, 1023, 689, 285, 380, 440, 439, 452, 450, 458, 469, 474, 493, 489, 
504, 518, 529, 551, 567, 590, 599, 575, 555, 502, 452, 426, 424, 436, 429, 436, 441, 438, 448, 443, 448, 452, 448, 458, 452, 459, 463, 456, 467, 462, 468, 471, 468, 476, 469, 475, 480, 474, 484, 477, 484, 485, 480, 491, 482, 500, 556, 572, 588, 563, 529, 492, 470, 474, 467, 474, 477, 472, 470, 464, 744, 1023, 1023, 525, 292, 407, 445, 443, 454, 451, 459, 473, 477, 496, 500, 510, 516, 520, 562, 569, 591, 593, 568, 544, 488, 443, 423, 423, 436, 431, 437, 440, 437, 449, 442, 450, 453, 449, 459, 453, 
459, 461, 459, 467, 463, 468, 470, 468, 476, 470, 476, 478, 475, 484, 477, 481, 482, 480, 488, 483, 513, 564, 575, 585, 555, 521, 485, 469, 476, 470, 476, 476, 473, 462, 500, 879, 1023, 1023, 395, 320, 425, 444, 441, 455, 451, 464, 475, 481, 499, 502, 515, 521, 527, 563, 577, 596, 589, 564, 532, 475, 427, 425, 428, 436, 429, 436, 438, 436, 448, 442, 450, 452, 449, 460, 453, 460, 462, 460, 467, 460, 470, 469, 467, 477, 468, 476, 477, 474, 482, 476, 480, 481, 479, 487, 481, 528, 568, 579, 580, 545, 
508, 480, 468, 476, 468, 476, 476, 472, 454, 556, 1023, 1023, 851, 320, 351, 436, 444, 444, 456, 452, 468, 476, 484, 503, 504, 518, 521, 536, 572, 581, 597, 584, 556, 522, 458, 428, 423, 425, 439, 431, 440, 439, 439, 449, 444, 450, 452, 452, 460, 453, 460, 461, 460, 469, 463, 471, 470, 468, 478, 471, 479, 476, 477, 484, 477, 485, 484, 483, 491, 486, 544, 572, 580, 576, 534, 499, 476, 466, 474, 468, 475, 474, 468, 458, 644, 1023, 1023, 664, 294, 379, 442, 443, 444, 457, 454, 472, 478, 488, 506, 504, 
516, 519, 543, 574, 588, 597, 578, 547, 508, 448, 428, 427, 428, 436, 443, 434, 442, 443, 452, 444, 452, 452, 450, 459, 455, 463, 461, 463, 469, 464, 473, 468, 470, 475, 471, 477, 476, 476, 482, 476, 484, 481, 481, 489, 495, 556, 576, 579, 569, 524, 490, 471, 467, 475, 468, 478, 474, 461, 473, 749, 1023, 1023, 499, 301, 403, 445, 442, 445, 456, 457, 476, 482, 491, 507, 505, 520, 524, 552, 580, 589, 596, 572, 538, 496, 437, 427, 428, 429, 440, 434, 442, 440, 441, 451, 445, 455, 450, 450, 460, 454, 
465, 461, 462, 470, 463, 472, 470, 470, 479, 474, 480, 477, 475, 483, 477, 485, 484, 482, 490, 509, 564, 577, 578, 561, 513, 484, 469, 468, 474, 468, 476, 474, 452, 513, 884, 1023, 1023, 377, 329, 420, 446, 444, 448, 459, 458, 477, 486, 494, 509, 508, 522, 530, 560, 587, 592, 592, 564, 526, 479, 428, 426, 428, 429, 437, 433, 444, 442, 444, 449, 445, 455, 454, 454, 462, 457, 467, 461, 460, 468, 463, 474, 471, 470, 478, 471, 481, 477, 476, 481, 476, 485, 481, 483, 490, 524, 571, 580, 575, 549, 500, 
482, 469, 469, 476, 470, 480, 475, 448, 572, 1023, 1023, 834, 307, 361, 431, 447, 444, 450, 460, 462, 482, 484, 496, 509, 508, 523, 539, 564, 590, 592, 584, 555, 514, 465, 421, 428, 428, 429, 438, 433, 443, 440, 442, 449, 443, 454, 452, 452, 459, 452, 462, 461, 460, 467, 460, 473, 468, 471, 477, 470, 482, 476, 477, 484, 477, 486, 482, 483, 495, 538, 577, 580, 569, 540, 492, 478, 469, 470, 476, 471, 480, 469, 453, 663, 1023, 1023, 649, 288, 390, 436, 448, 447, 452, 461, 465, 483, 492, 500, 515, 513, 
528, 547, 571, 595, 591, 581, 546, 500, 453, 418, 432, 429, 432, 441, 433, 444, 442, 444, 451, 446, 455, 453, 454, 460, 456, 466, 463, 464, 470, 463, 475, 471, 482, 477, 472, 481, 478, 480, 483, 477, 486, 483, 484, 503, 551, 580, 579, 563, 530, 484, 476, 469, 471, 477, 470, 481, 463, 472, 774, 1023, 1023, 487, 300, 410, 436, 445, 447, 452, 463, 466, 484, 491, 500, 513, 510, 529, 553, 575, 596, 587, 575, 537, 488, 443, 418, 436, 431, 435, 441, 435, 447, 443, 446, 452, 448, 457, 453, 459, 463, 457, 
465, 463, 464, 469, 465, 475, 469, 471, 477, 470, 480, 480, 480, 484, 476, 488, 482, 484, 517, 559, 582, 575, 555, 518, 476, 476, 467, 470, 476, 469, 479, 453, 515, 919, 1023, 1013, 364, 330, 428, 437, 449, 449, 455, 465, 469, 489, 495, 505, 515, 514, 536, 560, 582, 597, 582, 568, 525, 473, 433, 419, 433, 429, 435, 440, 436, 446, 441, 447, 452, 448, 457, 452, 457, 460, 456, 467, 464, 466, 471, 464, 476, 471, 472, 477, 471, 480, 475, 470, 487, 474, 489, 482, 485, 532, 566, 587, 573, 545, 507, 474, 
475, 468, 471, 476, 469, 479, 448, 579, 1023, 1023, 809, 300, 360, 438, 438, 451, 449, 456, 468, 472, 491, 495, 507, 517, 515, 545, 564, 588, 598, 576, 560, 514, 460, 428, 421, 434, 431, 436, 442, 438, 448, 444, 448, 452, 448, 458, 456, 459, 463, 457, 468, 463, 467, 471, 466, 478, 471, 476, 479, 473, 481, 478, 484, 485, 479, 487, 483, 494, 548, 571, 588, 567, 534, 496, 469, 474, 467, 472, 476, 471, 474, 452, 673, 1023, 1023, 627, 286, 390, 442, 438, 453, 452, 459, 470, 476, 496, 500, 508, 518, 518, 
552, 569, 592, 596, 572, 551, 498, 448, 425, 422, 434, 430, 436, 441, 435, 446, 443, 447, 452, 449, 459, 450, 459, 463, 457, 468, 463, 467, 471, 466, 476, 469, 475, 479, 473, 483, 477, 480, 483, 479, 488, 481, 501, 556, 571, 586, 562, 524, 490, 468, 474, 469, 473, 477, 471, 468, 475, 793, 1023, 1023, 468, 303, 414, 445, 441, 456, 452, 463, 476, 482, 500, 500, 511, 520, 524, 564, 576, 596, 593, 568, 542, 484, 437, 426, 427, 437, 432, 436, 442, 436, 447, 444, 449, 453, 448, 458, 453, 458, 463, 458, 
468, 463, 466, 471, 468, 476, 469, 475, 477, 471, 482, 476, 480, 484, 479, 488, 481, 516, 564, 572, 581, 548, 515, 484, 467, 473, 466, 475, 476, 471, 457, 522, 947, 1023, 969, 356, 332, 428, 445, 441, 456, 453, 465, 479, 483, 501, 502, 513, 522, 529, 567, 579, 595, 588, 559, 530, 468, 429, 427, 427, 437, 432, 439, 441, 437, 448, 444, 449, 454, 449, 461, 455, 460, 464, 460, 469, 463, 468, 470, 467, 476, 470, 476, 480, 476, 482, 479, 482, 484, 480, 490, 483, 535, 572, 579, 579, 541, 503, 479, 466, 
475, 469, 475, 478, 473, 453, 593, 1023, 1023, 766, 303, 364, 439, 447, 444, 458, 456, 467, 480, 486, 504, 504, 514, 521, 539, 572, 584, 593, 583, 549, 518, 454, 425, 424, 428, 437, 432, 438, 443, 438, 450, 444, 450, 453, 449, 459, 454, 460, 463, 459, 469, 464, 470, 470, 468, 477, 470, 475, 478, 475, 483, 477, 481, 484, 480, 488, 490, 547, 576, 577, 572, 530, 494, 475, 465, 475, 468, 474, 476, 465, 463, 688, 1023, 1023, 591, 297, 391, 442, 444, 447, 459, 457, 471, 482, 488, 507, 505, 516, 524, 546, 
577, 591, 594, 576, 540, 501, 443, 423, 428, 424, 436, 432, 434, 441, 441, 451, 447, 451, 452, 452, 463, 456, 463, 464, 460, 471, 464, 469, 470, 467, 479, 471, 477, 478, 476, 483, 477, 484, 484, 481, 492, 502, 558, 578, 578, 566, 519, 487, 472, 464, 476, 470, 474, 476, 457, 487, 809, 1023, 1023, 435, 315, 411, 443, 444, 444, 457, 456, 473, 483, 488, 508, 508, 519, 529, 555, 583, 590, 592, 570, 532, 490, 434, 425, 441, 429, 440, 434, 441, 444, 437, 449, 446, 452, 453, 451, 461, 454, 460, 464, 460, 
469, 464, 472, 472, 469, 479, 473, 479, 480, 475, 487, 477, 484, 484, 480, 490, 516, 567, 580, 572, 556, 506, 481, 471, 466, 477, 471, 477, 476, 449, 540, 973, 1023, 940, 336, 345, 428, 445, 446, 448, 459, 461, 477, 485, 493, 511, 508, 521, 534, 563, 588, 592, 588, 561, 520, 475, 425, 426, 431, 428, 439, 435, 443, 443, 441, 451, 446, 445, 455, 445, 462, 456, 462, 463, 460, 469, 464, 470, 471, 468, 479, 471, 478, 477, 475, 485, 479, 484, 484, 481, 492, 532, 573, 584, 570, 546, 496, 479, 472, 468, 
478, 469, 477, 473, 444, 613, 1023, 1023, 737, 288, 374, 434, 444, 448, 449, 461, 464, 480, 490, 497, 514, 508, 521, 544, 566, 592, 593, 583, 555, 508, 462, 422, 430, 432, 431, 441, 436, 444, 444, 443, 452, 445, 454, 454, 452, 463, 457, 464, 464, 462, 472, 465, 474, 469, 467, 477, 472, 480, 476, 479, 484, 478, 485, 484, 481, 499, 545, 578, 582, 565, 536, 487, 476, 469, 468, 478, 471, 480, 469, 458, 712, 1023, 1023, 566, 288, 400, 436, 445, 448, 448, 464, 466, 483, 492, 500, 515, 514, 525, 552, 572, 
597, 592, 578, 545, 494, 448, 420, 432, 433, 432, 440, 436, 444, 445, 444, 451, 448, 455, 453, 453, 463, 456, 465, 465, 461, 470, 465, 473, 470, 468, 476, 471, 480, 478, 477, 483, 477, 484, 484, 481, 511, 555, 580, 580, 558, 525, 481, 474, 470, 468, 476, 470, 479, 459, 487, 842, 1023, 1023, 422, 312, 421, 439, 448, 450, 451, 466, 468, 486, 494, 501, 513, 513, 531, 559, 576, 596, 585, 572, 532, 478, 440, 417, 432, 430, 428, 439, 434, 446, 446, 445, 453, 448, 458, 456, 455, 462, 458, 466, 464, 464, 
470, 464, 473, 473, 471, 478, 472, 480, 479, 479, 486, 479, 487, 484, 483, 526, 561, 583, 577, 548, 515, 474, 474, 469, 468, 476, 469, 480, 451, 541, 1023, 1023, 915, 328, 345, 435, 436, 450, 450, 454, 468, 470, 488, 496, 505, 517, 513, 540, 563, 583, 598, 580, 563, 519, 467, 433, 420, 433, 432, 434, 441, 435, 447, 444, 446, 452, 448, 457, 455, 456, 463, 457, 467, 462, 464, 470, 464, 473, 470, 472, 479, 471, 479, 477, 478, 484, 477, 486, 483, 485, 540, 567, 586, 569, 540, 502, 472, 475, 470, 473, 
477, 471, 477, 449, 623, 1023, 1023, 718, 291, 374, 441, 437, 452, 452, 457, 473, 475, 494, 499, 508, 519, 519, 549, 568, 588, 599, 577, 557, 508, 453, 427, 424, 435, 432, 436, 442, 436, 448, 445, 448, 453, 449, 459, 456, 457, 462, 456, 468, 463, 468, 472, 467, 476, 472, 473, 479, 470, 480, 476, 480, 484, 477, 488, 483, 496, 553, 571, 586, 563, 528, 494, 468, 474, 468, 473, 478, 471, 470, 461, 724, 1023, 1023, 548, 292, 402, 445, 438, 452, 451, 460, 475, 477, 496, 500, 509, 521, 519, 556, 571, 591, 
594, 569, 546, 491, 443, 426, 423, 435, 431, 435, 441, 436, 448, 444, 448, 452, 447, 459, 454, 458, 464, 457, 468, 464, 467, 471, 465, 476, 470, 475, 477, 481, 481, 471, 480, 484, 478, 488, 482, 510, 562, 573, 583, 557, 522, 488, 468, 475, 468, 473, 477, 472, 460, 492, 852, 1023, 1023, 410, 316, 421, 445, 440, 455, 452, 463, 476, 479, 497, 502, 511, 520, 525, 565, 578, 596, 591, 564, 536, 476, 436, 428, 428, 436, 432, 438, 443, 438, 449, 444, 451, 455, 450, 462, 454, 460, 464, 460, 468, 464, 468, 
471, 465, 477, 471, 477, 479, 474, 483, 477, 484, 486, 481, 490, 483, 525, 570, 575, 580, 544, 508, 479, 468, 474, 468, 475, 475, 472, 455, 548, 1023, 1023, 879, 326, 345, 433, 444, 443, 456, 451, 464, 478, 484, 501, 503, 515, 523, 533, 570, 583, 597, 587, 556, 524, 462, 428, 426, 426, 435, 431, 437, 442, 439, 449, 444, 452, 453, 448, 460, 454, 460, 463, 460, 469, 463, 470, 472, 467, 476, 469, 476, 477, 474, 483, 476, 483, 484, 480, 487, 485, 539, 569, 576, 577, 535, 498, 477, 466, 476, 469, 474, 
475, 468, 455, 631, 1023, 1023, 687, 295, 374, 441, 444, 445, 459, 454, 469, 480, 488, 506, 505, 516, 523, 543, 576, 586, 596, 579, 548, 512, 450, 427, 428, 427, 438, 431, 442, 442, 442, 450, 445, 452, 456, 452, 463, 455, 461, 461, 462, 471, 462, 470, 470, 469, 477, 470, 476, 478, 476, 483, 477, 484, 483, 481, 490, 492, 551, 576, 576, 572, 527, 489, 476, 468, 475, 468, 476, 475, 462, 471, 732, 1023, 1023, 521, 300, 399, 444, 443, 444, 457, 455, 471, 481, 488, 506, 504, 517, 524, 549, 579, 590, 595, 
573, 537, 497, 438, 424, 428, 428, 437, 431, 438, 440, 441, 450, 444, 452, 453, 452, 460, 454, 463, 462, 462, 470, 464, 469, 471, 469, 478, 470, 476, 476, 477, 481, 476, 484, 482, 483, 490, 508, 563, 578, 577, 563, 514, 484, 469, 464, 475, 469, 477, 476, 454, 504, 865, 1023, 1023, 390, 327, 418, 444, 443, 447, 458, 458, 476, 483, 492, 508, 506, 520, 531, 558, 585, 590, 592, 564, 528, 480, 428, 425, 428, 430, 439, 432, 444, 442, 442, 450, 444, 452, 451, 453, 461, 454, 464, 462, 463, 470, 464, 472, 
471, 471, 479, 471, 479, 477, 476, 483, 476, 484, 484, 483, 489, 522, 572, 581, 574, 552, 503, 481, 470, 468, 477, 471, 479, 475, 452, 559, 1023, 1023, 860, 314, 357, 431, 445, 444, 450, 460, 462, 480, 486, 496, 511, 508, 525, 538, 564, 589, 593, 588, 557, 516, 468, 423, 429, 428, 432, 440, 432, 444, 442, 444, 453, 447, 456, 453, 455, 462, 457, 465, 464, 465, 471, 466, 474, 471, 473, 478, 471, 481, 477, 476, 485, 478, 487, 482, 483, 492, 536, 576, 581, 571, 542, 492, 480, 468, 468, 476, 469, 479, 
470, 449, 649, 1023, 1023, 673, 288, 387, 436, 447, 447, 451, 463, 467, 484, 488, 500, 515, 510, 526, 545, 569, 594, 592, 583, 548, 504, 456, 420, 431, 429, 433, 440, 433, 444, 442, 446, 452, 447, 457, 452, 456, 461, 455, 464, 460, 463, 469, 463, 473, 469, 471, 476, 470, 480, 476, 477, 484, 478, 486, 482, 484, 500, 547, 580, 578, 564, 529, 484, 477, 467, 471, 477, 469, 479, 463, 465, 752, 1023, 1023, 504, 296, 406, 437, 448, 445, 452, 463, 468, 485, 492, 501, 514, 513, 528, 553, 575, 595, 589, 575, 
536, 488, 444, 418, 432, 432, 432, 438, 435, 446, 441, 445, 450, 447, 458, 452, 454, 460, 457, 467, 461, 464, 469, 465, 476, 470, 473, 476, 470, 481, 476, 480, 483, 478, 487, 481, 484, 516, 557, 584, 576, 557, 518, 476, 475, 467, 472, 476, 472, 482, 453, 507, 892, 1023, 1023, 380, 325, 426, 439, 449, 448, 449, 463, 474, 489, 492, 506, 516, 516, 536, 558, 580, 596, 584, 569, 527, 476, 433, 418, 434, 431, 434, 439, 436, 446, 442, 448, 452, 447, 459, 452, 458, 460, 458, 466, 461, 467, 468, 467, 476, 
469, 474, 476, 472, 483, 477, 480, 483, 479, 491, 482, 485, 530, 564, 587, 574, 548, 507, 474, 474, 465, 472, 476, 471, 479, 447, 568, 1023, 1023, 841, 305, 356, 436, 436, 452, 449, 457, 468, 473, 494, 496, 508, 516, 516, 542, 561, 587, 596, 579, 563, 512, 462, 428, 421, 435, 428, 437, 439, 435, 447, 441, 448, 451, 449, 459, 452, 459, 460, 458, 468, 461, 469, 470, 466, 476, 468, 477, 477, 473, 483, 477, 482, 482, 480, 488, 481, 492, 540, 570, 588, 566, 538, 496, 469, 476, 467, 473, 475, 474, 476, 
450, 660, 1023, 1023, 660, 286, 388, 440, 441, 453, 450, 459, 468, 476, 496, 497, 510, 515, 519, 553, 570, 593, 596, 574, 553, 500, 452, 423, 423, 435, 431, 437, 439, 439, 448, 441, 451, 449, 446, 456, 453, 460, 460, 457, 468, 462, 470, 468, 467, 476, 469, 478, 476, 475, 484, 476, 482, 481, 479, 486, 481, 500, 552, 572, 583, 559, 529, 486, 470, 475, 468, 476, 475, 472, 468, 467, 766, 1023, 1023, 491, 299, 412, 441, 440, 453, 450, 464, 471, 480, 497, 501, 514, 515, 523, 560, 573, 599, 592, 570, 542, 
486, 444, 423, 428, 436, 432, 441, 438, 439, 448, 441, 452, 452, 452, 460, 454, 462, 459, 461, 469, 461, 470, 468, 467, 474, 468, 477, 475, 476, 482, 476, 484, 481, 480, 487, 480, 518, 561, 577, 582, 552, 520, 480, 468, 474, 470, 479, 474, 474, 457, 510, 916, 1023, 1012, 371, 324, 428, 440, 442, 452, 450, 467, 474, 483, 498, 500, 515, 516, 530, 565, 580, 598, 588, 563, 532, 469, 436, 421, 428, 436, 429, 443, 440, 441, 448, 442, 453, 449, 452, 458, 452, 463, 459, 460, 468, 462, 473, 467, 468, 476, 
470, 477, 475, 476, 481, 475, 484, 480, 481, 485, 480, 533, 569, 580, 578, 540, 507, 476, 471, 476, 470, 478, 474, 474, 452, 572, 1023, 1023, 810, 307, 356, 441, 441, 448, 457, 452, 471, 478, 488, 503, 503, 518, 517, 540, 573, 583, 600, 581, 558, 520, 457, 430, 425, 428, 436, 432, 444, 439, 441, 447, 442, 454, 449, 453, 459, 452, 464, 460, 462, 467, 462, 471, 468, 469, 475, 469, 484, 473, 476, 479, 474, 486, 480, 484, 486, 485, 547, 572, 581, 572, 532, 499, 471, 470, 473, 468, 480, 474, 470, 459, 
666, 1023, 1023, 627, 292, 383, 444, 440, 448, 454, 452, 473, 477, 491, 504, 504, 519, 519, 549, 573, 586, 598, 574, 546, 503, 446, 428, 427, 432, 436, 433, 444, 439, 445, 448, 444, 455, 451, 456, 459, 454, 466, 460, 464, 466, 464, 471, 467, 473, 475, 468, 479, 472, 480, 476, 470, 487, 481, 484, 487, 497, 560, 573, 582, 565, 523, 492, 470, 470, 474, 468, 478, 471, 463, 476, 780, 1023, 1023, 471, 307, 406, 444, 441, 451, 457, 456, 477, 480, 496, 506, 507, 522, 524, 556, 578, 589, 595, 567, 538, 489, 
436, 426, 425, 432, 436, 434, 445, 438, 446, 450, 444, 456, 451, 455, 457, 455, 466, 460, 466, 468, 464, 474, 468, 474, 476, 473, 482, 475, 481, 481, 476, 486, 480, 481, 485, 514, 569, 576, 579, 556, 508, 484, 467, 471, 472, 469, 478, 472, 455, 523, 931, 1023, 988, 358, 335, 424, 446, 443, 453, 457, 460, 478, 481, 497, 507, 508, 524, 528, 564, 584, 593, 592, 560, 528, 473, 428, 428, 426, 434, 435, 434, 444, 436, 448, 448, 445, 455, 449, 457, 459, 456, 464, 459, 468, 467, 465, 473, 467, 476, 475, 
471, 479, 474, 481, 480, 477, 486, 479, 486, 485, 528, 573, 577, 583, 542, 498, 480, 465, 471, 471, 470, 479, 469, 452, 588, 1023, 1023, 779, 304, 365, 434, 446, 444, 453, 457, 461, 481, 485, 500, 504, 510, 524, 535, 570, 588, 593, 585, 549, 516, 459, 422, 430, 427, 438, 436, 436, 444, 441, 451, 448, 449, 459, 452, 460, 459, 459, 467, 460, 468, 467, 467, 473, 468, 478, 475, 475, 481, 473, 483, 480, 480, 486, 479, 488, 492, 543, 577, 577, 571, 531, 491, 479, 465, 474, 472, 472, 479, 464, 459, 682, 
1023, 1023, 603, 294, 392, 440, 448, 444, 459, 459, 468, 484, 488, 506, 509, 514, 526, 545, 576, 591, 593, 578, 540, 501, 444, 420, 431, 427, 436, 436, 436, 443, 437, 451, 448, 450, 455, 450, 461, 458, 459, 466, 460, 469, 467, 468, 473, 466, 477, 474, 476, 480, 474, 483, 480, 481, 488, 480, 488, 502, 555, 580, 575, 564, 522, 484, 475, 465, 475, 472, 478, 479, 457, 483, 800, 1023, 1023, 444, 311, 412, 441, 448, 445, 459, 460, 473, 485, 489, 508, 508, 517, 530, 553, 580, 592, 590, 571, 531, 488, 436, 
423, 432, 428, 437, 435, 440, 445, 439, 450, 448, 450, 456, 451, 461, 457, 463, 465, 460, 470, 465, 468, 472, 468, 476, 473, 476, 480, 472, 480, 476, 480, 485, 480, 488, 516, 564, 582, 574, 557, 508, 480, 474, 465, 476, 471, 475, 474, 450, 535, 957, 1023, 963, 340, 341, 426, 444, 449, 448, 460, 463, 476, 489, 493, 511, 511, 522, 540, 561, 589, 593, 588, 566, 521, 474, 427, 427, 434, 431, 441, 436, 443, 446, 444, 452, 448, 452, 456, 452, 460, 457, 462, 465, 461, 470, 464, 469, 472, 466, 477, 471, 
477, 479, 475, 484, 477, 484, 485, 480, 491, 529, 572, 585, 571, 548, 497, 477, 472, 468, 476, 471, 476, 477, 446, 605, 1023, 1023, 762, 293, 372, 433, 445, 449, 448, 460, 463, 480, 492, 497, 514, 511, 524, 544, 564, 593, 592, 582, 554, 508, 462, 420, 427, 431, 430, 441, 433, 443, 444, 443, 452, 445, 453, 455, 453, 463, 456, 464, 463, 461, 469, 465, 470, 471, 469, 479, 469, 476, 479, 476, 484, 476, 483, 485, 481, 498, 543, 576, 582, 564, 537, 488, 473, 469, 468, 476, 468, 478, 469, 456, 700, 1023, 
1023, 586, 287, 400, 436, 448, 453, 453, 466, 466, 483, 493, 500, 515, 513, 525, 552, 571, 596, 588, 578, 544, 494, 450, 419, 429, 429, 430, 440, 435, 444, 444, 443, 452, 446, 453, 453, 453, 463, 457, 464, 463, 463, 471, 464, 472, 471, 471, 478, 471, 480, 479, 477, 482, 476, 484, 481, 483, 510, 553, 580, 580, 560, 526, 480, 475, 469, 470, 476, 470, 478, 459, 480, 820, 1023, 1023, 437, 309, 420, 438, 448, 450, 452, 465, 468, 495, 496, 507, 516, 514, 530, 559, 576, 598, 588, 572, 535, 483, 441, 417, 
432, 431, 434, 442, 436, 445, 443, 444, 451, 445, 453, 452, 456, 462, 457, 464, 463, 465, 471, 464, 472, 469, 471, 479, 472, 481, 477, 478, 484, 476, 486, 483, 484, 523, 560, 584, 576, 550, 516, 475, 475, 468, 470, 477, 471, 480, 451, 532, 988, 1023, 943, 337, 340, 434, 437, 448, 449, 455, 468, 472, 489, 495, 500, 516, 516, 539, 563, 583, 600, 581, 567, 522, 468, 432, 420, 434, 432, 436, 441, 436, 445, 443, 447, 452, 447, 457, 452, 457, 464, 456, 468, 461, 465, 472, 467, 475, 470, 474, 479, 474, 
481, 477, 479, 484, 478, 488, 482, 486, 536, 565, 585, 571, 540, 503, 473, 475, 469, 472, 477, 471, 477, 448, 608, 1023, 1023, 743, 291, 371, 441, 438, 452, 451, 457, 468, 474, 494, 499, 506, 517, 517, 548, 568, 589, 599, 575, 557, 508, 457, 429, 423, 436, 431, 436, 443, 435, 448, 444, 448, 452, 448, 460, 454, 458, 463, 457, 468, 462, 465, 470, 467, 476, 471, 475, 478, 472, 481, 476, 481, 484, 476, 488, 481, 494, 551, 571, 588, 565, 532, 495, 469, 475, 468, 472, 477, 471, 472, 457, 706, 1023, 1023, 
572, 288, 398, 443, 437, 453, 450, 460, 472, 476, 495, 499, 509, 517, 520, 556, 570, 592, 593, 566, 548, 492, 439, 423, 424, 436, 431, 436, 441, 439, 449, 442, 449, 453, 449, 460, 455, 460, 461, 459, 470, 462, 468, 470, 466, 476, 469, 476, 478, 473, 484, 476, 483, 484, 480, 488, 483, 508, 559, 576, 588, 558, 524, 486, 468, 475, 468, 473, 475, 473, 464, 484, 832, 1023, 1023, 430, 312, 419, 443, 440, 454, 452, 461, 473, 480, 498, 500, 513, 517, 523, 562, 575, 595, 590, 564, 539, 478, 437, 424, 427, 
436, 430, 440, 440, 437, 448, 444, 450, 448, 450, 460, 453, 459, 460, 458, 468, 463, 470, 468, 467, 476, 470, 477, 477, 474, 483, 476, 483, 481, 479, 488, 481, 524, 567, 578, 580, 547, 512, 479, 468, 475, 468, 475, 475, 472, 456, 539, 1012, 1023, 915, 337, 341, 435, 442, 443, 456, 452, 467, 476, 483, 501, 504, 515, 519, 533, 569, 581, 599, 586, 559, 528, 467, 433, 425, 428, 438, 431, 436, 433, 440, 451, 445, 452, 451, 450, 460, 454, 463, 461, 460, 468, 461, 470, 468, 467, 476, 469, 479, 476, 475, 
481, 476, 484, 481, 480, 490, 484, 540, 571, 580, 577, 538, 502, 475, 467, 475, 468, 476, 475, 471, 454, 615, 1023, 1023, 721, 295, 370, 442, 442, 444, 457, 452, 471, 476, 487, 504, 505, 520, 522, 542, 571, 586, 599, 579, 552, 514, 454, 428, 426, 431, 436, 431, 442, 440, 442, 446, 443, 454, 444, 452, 459, 453, 464, 460, 461, 468, 464, 475, 468, 468, 475, 470, 480, 475, 476, 481, 476, 485, 481, 481, 487, 489, 552, 572, 580, 570, 526, 495, 471, 468, 476, 468, 478, 475, 466, 465, 713, 1023, 1023, 552, 
298, 396, 445, 442, 446, 457, 453, 475, 479, 492, 507, 505, 521, 523, 552, 579, 591, 598, 575, 543, 498, 439, 427, 425, 429, 436, 434, 444, 439, 443, 448, 444, 455, 452, 452, 460, 457, 468, 461, 465, 468, 464, 475, 468, 471, 476, 471, 480, 476, 477, 480, 475, 486, 479, 482, 486, 503, 563, 576, 580, 561, 516, 489, 466, 469, 473, 468, 479, 474, 459, 493, 839, 1023, 1023, 412, 319, 415, 448, 441, 451, 456, 458, 478, 481, 495, 504, 508, 522, 526, 560, 582, 592, 593, 565, 533, 482, 431, 428, 427, 432, 
436, 433, 445, 437, 444, 447, 445, 455, 449, 454, 460, 456, 465, 458, 464, 467, 462, 474, 467, 474, 476, 470, 481, 475, 480, 482, 478, 486, 480, 485, 487, 521, 570, 576, 578, 551, 503, 482, 468, 470, 473, 471, 476, 474, 449, 549, 1022, 1023, 893, 327, 346, 430, 446, 443, 453, 456, 460, 481, 482, 497, 508, 508, 524, 532, 566, 584, 593, 591, 558, 520, 467, 424, 430, 429, 435, 436, 433, 444, 439, 447, 448, 445, 456, 452, 460, 457, 456, 465, 460, 467, 467, 464, 473, 468, 475, 473, 471, 481, 475, 481, 
480, 479, 488, 481, 487, 487, 535, 574, 578, 575, 540, 497, 480, 465, 472, 471, 471, 480, 467, 452, 625, 1023, 1023, 704, 294, 376, 436, 447, 444, 455, 456, 464, 483, 484, 501, 507, 510, 526, 541, 573, 588, 592, 584, 548, 510, 452, 420, 430, 426, 435, 436, 434, 444, 438, 447, 448, 447, 454, 449, 460, 456, 456, 464, 458, 468, 466, 465, 474, 466, 476, 472, 474, 480, 475, 483, 481, 479, 487, 480, 489, 496, 549, 579, 577, 569, 530, 487, 476, 465, 474, 471, 473, 478, 461, 468, 727, 1023, 1023, 533, 300, 
401, 444, 450, 444, 459, 459, 471, 484, 487, 508, 508, 516, 529, 549, 579, 592, 591, 576, 538, 496, 440, 420, 430, 425, 436, 435, 436, 444, 439, 451, 444, 449, 456, 448, 462, 455, 459, 466, 460, 472, 467, 468, 475, 467, 478, 475, 475, 480, 474, 484, 479, 482, 485, 482, 492, 508, 560, 584, 576, 564, 519, 482, 473, 465, 476, 472, 474, 480, 455, 501, 856, 1023, 1023, 399, 323, 419, 442, 448, 445, 458, 460, 472, 486, 491, 508, 508, 517, 531, 556, 584, 593, 589, 566, 524, 483, 432, 425, 432, 428, 439, 
436, 441, 444, 441, 452, 448, 452, 454, 451, 462, 457, 462, 466, 461, 470, 464, 470, 472, 466, 478, 475, 477, 479, 476, 484, 480, 480, 484, 479, 488, 522, 567, 583, 573, 555, 504, 479, 473, 466, 476, 470, 476, 478, 447, 558, 1023, 1023, 875, 315, 353, 429, 444, 448, 448, 460, 463, 476, 489, 493, 511, 509, 520, 539, 563, 589, 592, 585, 563, 517, 470, 426, 428, 433, 428, 441, 436, 443, 445, 440, 452, 447, 452, 457, 452, 463, 455, 462, 466, 461, 471, 464, 470, 473, 468, 479, 471, 478, 479, 475, 483, 
476, 484, 484, 480, 493, 535, 573, 584, 570, 544, 492, 477, 472, 467, 477, 469, 478, 472, 447, 644, 1023, 1023, 687, 287, 383, 436, 444, 447, 449, 463, 466, 482, 492, 497, 515, 514, 524, 548, 567, 595, 592, 580, 552, 503, 458, 422, 431, 434, 431, 441, 435, 443, 443, 443, 451, 446, 455, 453, 451, 462, 456, 464, 464, 462, 469, 464, 470, 470, 468, 478, 471, 479, 477, 476, 485, 476, 484, 484, 481, 500, 548, 577, 581, 562, 532, 484, 475, 468, 466, 476, 470, 479, 465, 461, 744, 1023, 1023, 521, 293, 408, 
437, 446, 448, 449, 462, 466, 483, 491, 500, 516, 514, 528, 552, 572, 599, 588, 576, 540, 489, 445, 420, 433, 431, 431, 440, 436, 444, 443, 444, 452, 446, 456, 454, 455, 463, 457, 466, 464, 464, 470, 464, 472, 471, 471, 480, 471, 479, 478, 477, 484, 476, 485, 483, 484, 516, 558, 581, 578, 556, 522, 478, 475, 469, 469, 477, 470, 479, 455, 499, 876, 1023, 1023, 391, 321, 426, 436, 448, 449, 453, 465, 468, 486, 493, 505, 516, 514, 536, 558, 579, 599, 585, 570, 529, 478, 438, 418, 433, 432, 432, 441, 
436, 446, 444, 445, 452, 444, 458, 456, 456, 461, 456, 465, 464, 465, 470, 464, 475, 470, 471, 476, 470, 482, 477, 480, 484, 477, 488, 483, 484, 529, 563, 583, 572, 548, 510, 473, 474, 467, 470, 477, 469, 476, 448, 560, 1023, 1023, 857, 313, 352, 437, 439, 451, 451, 456, 468, 473, 492, 496, 507, 516, 516, 544, 564, 585, 598, 579, 560, 517, 464, 432, 420, 436, 432, 435, 440, 434, 445, 444, 445, 449, 447, 458, 452, 459, 462, 457, 466, 461, 465, 469, 464, 476, 471, 472, 478, 472, 480, 476, 480, 483, 
476, 487, 481, 491, 544, 568, 586, 569, 539, 500, 469, 474, 468, 473, 476, 470, 476, 448, 647, 1023, 1023, 675, 288, 383, 444, 440, 452, 451, 459, 473, 476, 495, 498, 508, 516, 517, 553, 569, 592, 597, 573, 552, 501, 452, 424, 421, 436, 430, 437, 441, 436, 448, 442, 448, 453, 448, 459, 455, 460, 461, 459, 468, 463, 467, 471, 467, 476, 468, 474, 477, 472, 483, 476, 481, 484, 479, 489, 482, 498, 553, 571, 584, 561, 529, 491, 468, 472, 468, 474, 476, 471, 468, 464, 752, 1023, 1023, 506, 295, 407, 444, 
441, 456, 450, 461, 475, 479, 497, 499, 510, 519, 523, 560, 572, 595, 593, 569, 544, 486, 443, 427, 425, 436, 428, 440, 442, 437, 448, 441, 448, 452, 450, 460, 453, 460, 462, 460, 469, 461, 469, 472, 466, 476, 470, 477, 478, 474, 484, 479, 483, 484, 480, 489, 483, 516, 564, 576, 585, 554, 519, 483, 467, 474, 468, 475, 476, 471, 460, 503, 892, 1023, 1023, 382, 321, 423, 442, 441, 455, 450, 463, 477, 480, 500, 500, 511, 518, 528, 565, 577, 596, 590, 561, 534, 471, 434, 426, 428, 436, 429, 438, 441, 
439, 449, 440, 451, 452, 450, 460, 453, 460, 461, 458, 469, 463, 469, 469, 468, 477, 470, 476, 476, 476, 483, 476, 484, 484, 480, 489, 482, 531, 571, 578, 579, 541, 508, 480, 467, 476, 468, 475, 475, 472, 455, 565, 1023, 1023, 828, 315, 354, 437, 444, 444, 458, 452, 468, 477, 484, 502, 501, 514, 518, 535, 570, 583, 596, 581, 555, 520, 457, 426, 425, 428, 436, 430, 439, 441, 440, 451, 444, 451, 452, 451, 463, 455, 461, 461, 461, 470, 461, 469, 470, 468, 478, 469, 477, 476, 475, 485, 476, 481, 481, 
478, 489, 487, 545, 572, 579, 575, 533, 500, 473, 468, 475, 468, 475, 475, 469, 459, 655, 1023, 1023, 642, 293, 380, 442, 442, 444, 458, 452, 471, 478, 488, 504, 504, 517, 522, 544, 576, 588, 598, 580, 547, 509, 448, 426, 429, 430, 440, 433, 444, 442, 442, 449, 445, 453, 452, 451, 463, 456, 464, 463, 461, 470, 464, 472, 471, 469, 477, 469, 478, 476, 474, 483, 476, 483, 481, 481, 488, 497, 556, 575, 579, 569, 523, 491, 471, 469, 476, 468, 477, 476, 461, 477, 764, 1023, 1023, 483, 306, 404, 444, 443, 
446, 458, 455, 474, 480, 490, 506, 505, 519, 524, 554, 581, 591, 594, 572, 536, 491, 436, 425, 428, 429, 438, 433, 443, 440, 440, 448, 445, 453, 452, 453, 461, 454, 464, 462, 462, 470, 463, 474, 470, 469, 476, 470, 479, 477, 477, 484, 479, 484, 483, 481, 490, 511, 567, 579, 577, 557, 510, 484, 469, 468, 476, 468, 478, 470, 454, 520, 909, 1023, 1012, 364, 334, 422, 447, 444, 449, 460, 460, 480, 483, 493, 508, 506, 522, 529, 559, 586, 591, 592, 564, 527, 477, 428, 428, 428, 429, 438, 433, 444, 443, 
443, 450, 444, 456, 452, 453, 461, 456, 466, 464, 464, 470, 464, 473, 468, 471, 477, 466, 480, 477, 477, 483, 476, 484, 482, 482, 489, 524, 571, 580, 572, 548, 499, 481, 470, 469, 475, 470, 478, 474, 448, 581, 1023, 1023, 805, 300, 364, 432, 447, 445, 452, 462, 463, 483, 488, 497, 511, 510, 524, 539, 567, 591, 591, 585, 554, 513, 464, 420, 430, 430, 429, 439, 433, 447, 442, 444, 450, 445, 455, 452, 454, 461, 453, 465, 462, 464, 470, 462, 473, 471, 471, 476, 473, 480, 476, 477, 480, 478, 485, 482, 
482, 494, 540, 576, 581, 568, 537, 489, 478, 470, 469, 476, 471, 480, 468, 453, 675, 1023, 1023, 624, 287, 392, 436, 448, 447, 452, 462, 465, 484, 492, 501, 514, 511, 528, 548, 572, 596, 590, 580, 544, 499, 452, 419, 431, 429, 432, 437, 432, 444, 442, 444, 449, 445, 455, 452, 453, 460, 455, 465, 462, 465, 470, 462, 475, 471, 473, 477, 470, 480, 477, 480, 483, 476, 486, 482, 484, 506, 550, 580, 579, 564, 528, 482, 476, 468, 470, 476, 468, 478, 460, 476, 788, 1023, 1023, 469, 305, 412, 436, 448, 446, 
452, 464, 467, 486, 492, 503, 514, 513, 531, 555, 578, 598, 588, 576, 538, 487, 443, 420, 435, 432, 436, 440, 435, 446, 441, 445, 451, 446, 456, 451, 454, 461, 456, 465, 461, 464, 470, 463, 473, 468, 471, 476, 470, 481, 476, 480, 484, 479, 486, 481, 484, 519, 558, 586, 576, 555, 516, 477, 475, 468, 471, 474, 468, 478, 451, 521, 937, 1023, 997, 358, 333, 433, 438, 446, 451, 455, 464, 469, 489, 493, 507, 515, 514, 537, 560, 584, 598, 583, 569, 524, 471, 433, 420, 432, 429, 433, 441, 436, 447, 443, 
447, 452, 448, 457, 452, 456, 463, 456, 464, 460, 466, 470, 464, 476, 469, 474, 478, 472, 482, 476, 480, 485, 479, 486, 482, 485, 533, 564, 585, 572, 545, 507, 474, 476, 467, 472, 476, 471, 478, 448, 587, 1023, 1023, 796, 298, 361, 438, 437, 451, 449, 464, 465, 477, 492, 494, 506, 516, 516, 546, 567, 590, 598, 578, 559, 511, 460, 428, 422, 435, 431, 435, 439, 436, 445, 441, 446, 451, 448, 457, 453, 459, 463, 457, 469, 462, 467, 471, 468, 476, 468, 476, 480, 475, 483, 477, 480, 484, 478, 489, 481, 
492, 547, 570, 587, 567, 537, 497, 472, 476, 468, 474, 476, 471, 473, 453, 679, 1023, 1023, 620, 285, 391, 441, 439, 452, 450, 459, 472, 476, 494, 508, 507, 517, 518, 554, 569, 590, 596, 572, 549, 496, 449, 426, 426, 436, 429, 437, 442, 436, 448, 443, 448, 453, 447, 458, 452, 457, 462, 459, 469, 463, 466, 471, 466, 476, 471, 475, 478, 475, 482, 476, 480, 483, 478, 488, 481, 502, 559, 572, 584, 559, 525, 489, 469, 473, 468, 473, 477, 472, 468, 473, 793, 1023, 1023, 464, 303, 414, 443, 439, 455, 452, 
463, 474, 479, 498, 500, 513, 521, 522, 563, 573, 595, 593, 564, 540, 482, 437, 423, 425, 436, 429, 436, 440, 437, 449, 441, 448, 452, 448, 459, 452, 456, 461, 459, 468, 462, 468, 470, 467, 478, 469, 475, 476, 474, 484, 476, 481, 484, 482, 488, 480, 518, 565, 576, 583, 551, 515, 481, 467, 476, 468, 473, 475, 471, 457, 523, 950, 1023, 972, 357, 334, 430, 443, 440, 457, 452, 463, 476, 481, 501, 501, 513, 521, 528, 568, 581, 593, 584, 559, 527, 468, 433, 427, 429, 439, 431, 438, 441, 439, 451, 444, 
451, 454, 450, 460, 453, 461, 460, 459, 469, 462, 471, 472, 468, 477, 471, 476, 478, 476, 484, 477, 483, 483, 480, 490, 484, 533, 570, 579, 578, 539, 505, 477, 466, 474, 469, 476, 476, 470, 454, 592, 1023, 1023, 772, 304, 364, 438, 443, 444, 457, 453, 467, 477, 484, 505, 506, 518, 523, 540, 572, 584, 597, 580, 550, 516, 453, 425, 421, 429, 436, 432, 440, 441, 439, 449, 444, 452, 452, 452, 461, 455, 461, 463, 460, 469, 463, 469, 469, 467, 477, 470, 479, 478, 475, 484, 476, 484, 483, 480, 488, 489, 
548, 573, 579, 573, 529, 495, 475, 468, 475, 469, 476, 475, 465, 462, 688, 1023, 1023, 593, 296, 391, 441, 441, 444, 458, 455, 472, 480, 487, 506, 505, 519, 523, 548, 576, 587, 596, 576, 541, 501, 444, 427, 429, 426, 437, 433, 433, 440, 440, 449, 444, 452, 452, 451, 460, 454, 463, 462, 461, 469, 462, 471, 470, 469, 477, 469, 479, 478, 477, 481, 479, 486, 485, 481, 490, 500, 559, 578, 579, 565, 518, 487, 471, 467, 476, 468, 476, 476, 458, 486, 807, 1023, 1023, 440, 316, 412, 444, 443, 447, 457, 457, 
476, 484, 492, 507, 506, 521, 528, 556, 581, 589, 592, 569, 532, 485, 432, 427, 429, 428, 436, 432, 441, 442, 440, 451, 436, 454, 449, 452, 461, 455, 465, 464, 461, 470, 464, 472, 469, 469, 476, 472, 481, 478, 476, 484, 476, 487, 482, 481, 488, 515, 569, 578, 575, 557, 507, 484, 471, 468, 476, 468, 480, 476, 451, 539, 968, 1023, 950, 338, 343, 423, 445, 444, 449, 458, 459, 477, 483, 496, 508, 507, 523, 532, 563, 588, 591, 588, 560, 524, 474, 424, 428, 428, 429, 437, 431, 442, 439, 442, 448, 444, 
452, 452, 451, 458, 453, 464, 462, 464, 470, 464, 476, 470, 470, 476, 470, 480, 476, 478, 484, 476, 487, 484, 484, 489, 530, 575, 582, 573, 546, 496, 479, 468, 468, 474, 468, 477, 470, 447, 610, 1023, 1023, 747, 293, 372, 431, 446, 444, 452, 460, 462, 482, 488, 499, 510, 508, 524, 540, 569, 593, 591, 587, 553, 511, 461, 421, 432, 429, 433, 438, 433, 445, 441, 446, 451, 445, 458, 453, 454, 460, 456, 467, 463, 464, 473, 466, 475, 470, 472, 478, 471, 480, 476, 480, 484, 478, 488, 483, 486, 498, 543, 
579, 581, 568, 533, 486, 476, 468, 470, 475, 468, 478, 465, 460, 704, 1023, 1023, 573, 292, 399, 435, 446, 447, 452, 460, 467, 486, 490, 501, 511, 508, 526, 548, 572, 595, 588, 580, 540, 495, 448, 419, 431, 428, 433, 437, 433, 445, 442, 447, 450, 445, 456, 452, 457, 462, 455, 464, 461, 467, 466, 465, 482, 469, 474, 477, 473, 481, 475, 480, 484, 478, 488, 482, 484, 508, 556, 580, 576, 560, 524, 481, 475, 467, 472, 474, 468, 479, 455, 485, 826, 1023, 1023, 425, 313, 417, 438, 448, 448, 454, 464, 469, 
487, 492, 504, 513, 514, 532, 558, 580, 598, 587, 574, 531, 481, 437, 419, 433, 428, 437, 441, 436, 448, 440, 448, 450, 447, 460, 452, 459, 463, 459, 468, 462, 468, 470, 467, 476, 468, 476, 479, 471, 484, 475, 480, 483, 478, 487, 480, 485, 521, 562, 585, 574, 550, 511, 477, 476, 464, 473, 475, 470, 479, 448, 541, 1002, 1023, 924, 329, 345, 432, 439, 450, 447, 456, 466, 473, 491, 492, 507, 516, 516, 541, 561, 585, 596, 581, 566, 519, 471, 430, 422, 434, 428, 437, 439, 436, 448, 441, 448, 450, 448, 
458, 451, 460, 460, 460, 470, 461, 468, 468, 466, 475, 468, 475, 474, 472, 477, 474, 480, 482, 480, 487, 480, 491, 537, 568, 587, 569, 545, 500, 472, 474, 466, 473, 473, 470, 477, 444, 619, 1023, 1023, 732, 288, 376, 439, 438, 452, 447, 459, 467, 476, 493, 495, 508, 515, 518, 548, 565, 592, 595, 576, 558, 505, 457, 425, 425, 436, 428, 438, 439, 439, 448, 442, 450, 450, 449, 457, 452, 460, 461, 460, 468, 461, 468, 468, 467, 476, 468, 476, 476, 475, 483, 476, 483, 482, 481, 487, 479, 495, 549, 572, 
586, 563, 533, 489, 469, 475, 466, 473, 471, 473, 470, 458, 719, 1023, 1023, 559, 290, 403, 441, 441, 453, 450, 461, 471, 477, 496, 499, 511, 515, 521, 555, 569, 596, 593, 572, 548, 491, 446, 422, 425, 434, 430, 440, 439, 439, 448, 443, 452, 450, 450, 460, 455, 462, 460, 460, 467, 460, 472, 468, 467, 476, 468, 476, 475, 475, 483, 477, 485, 483, 481, 487, 481, 511, 556, 576, 586, 557, 522, 483, 470, 474, 466, 476, 473, 473, 463, 488, 847, 1023, 1023, 418, 313, 421, 439, 442, 454, 449, 465, 473, 483, 
497, 500, 514, 517, 528, 562, 575, 598, 590, 567, 537, 477, 439, 422, 426, 435, 429, 441, 437, 440, 448, 442, 452, 449, 452, 458, 454, 464, 460, 463, 468, 462, 472, 468, 470, 475, 471, 479, 474, 478, 484, 476, 485, 480, 483, 488, 481, 528, 564, 579, 581, 547, 514, 474, 470, 470, 475, 476, 472, 474, 456, 543, 1023, 1023, 899, 329, 343, 436, 439, 445, 455, 451, 467, 472, 484, 499, 500, 516, 517, 535, 567, 580, 599, 580, 558, 523, 461, 431, 420, 430, 435, 431, 443, 440, 444, 446, 443, 455, 449, 452, 
457, 452, 465, 460, 464, 467, 462, 473, 468, 470, 473, 466, 480, 474, 477, 481, 475, 486, 480, 483, 486, 484, 542, 568, 583, 575, 535, 501, 473, 469, 470, 468, 477, 471, 475, 448, 622, 1023, 1023, 704, 292, 372, 444, 441, 448, 456, 454, 471, 476, 490, 501, 503, 518, 519, 545, 572, 585, 600, 576, 552, 509, 449, 429, 423, 430, 432, 432, 443, 438, 442, 445, 444, 454, 448, 456, 456, 452, 464, 457, 463, 465, 463, 472, 467, 473, 474, 470, 479, 476, 480, 481, 478, 487, 481, 484, 486, 494, 556, 573, 584, 
567, 528, 495, 469, 473, 472, 468, 477, 473, 460, 464, 728, 1023, 1023, 539, 297, 399, 447, 439, 450, 456, 455, 476, 478, 494, 503, 506, 521, 520, 554, 575, 590, 597, 571, 544, 495, 440, 427, 426, 432, 432, 432, 444, 438, 446, 446, 445, 456, 450, 458, 460, 457, 464, 460, 468, 466, 464, 473, 466, 476, 473, 470, 480, 473, 480, 478, 476, 486, 480, 487, 483, 505, 563, 575, 580, 557, 515, 487, 466, 473, 472, 469, 479, 472, 460, 499, 860, 1023, 1023, 400, 320, 419, 454, 436, 452, 453, 459, 476, 478, 496, 
504, 508, 523, 526, 564, 580, 592, 592, 563, 532, 476, 431, 426, 424, 434, 435, 435, 445, 438, 447, 448, 447, 456, 450, 460, 457, 457, 465, 459, 468, 466, 467, 475, 467, 477, 473, 473, 479, 473, 483, 480, 480, 487, 479, 488, 485, 523, 571, 577, 578, 547, 506, 483, 467, 475, 472, 472, 479, 472, 455, 556, 1023, 1023, 860, 322, 351, 431, 445, 442, 455, 454, 463, 479, 481, 500, 504, 510, 524, 532, 569, 584, 593, 588, 554, 522, 464, 424, 428, 424, 436, 434, 436, 445, 437, 448, 443, 446, 449, 448, 459, 
458, 459, 465, 460, 468, 466, 468, 473, 467, 476, 472, 474, 479, 472, 483, 479, 480, 486, 480, 487, 488, 538, 575, 578, 576, 536, 495, 476, 465, 474, 470, 472, 479, 468, 456, 642, 1023, 1023, 673, 295, 381, 439, 446, 444, 458, 457, 467, 482, 485, 505, 506, 515, 526, 543, 574, 588, 593, 580, 544, 508, 449, 424, 429, 425, 436, 434, 436, 444, 441, 449, 447, 451, 455, 449, 460, 457, 460, 465, 458, 469, 465, 468, 474, 468, 476, 472, 475, 480, 476, 484, 480, 484, 484, 480, 489, 496, 551, 577, 577, 568, 
525, 487, 476, 465, 476, 471, 476, 476, 460, 474, 747, 1023, 1023, 507, 303, 402, 440, 445, 444, 457, 459, 472, 483, 489, 508, 507, 516, 528, 550, 579, 591, 593, 575, 535, 496, 440, 424, 431, 427, 439, 435, 441, 444, 439, 451, 445, 450, 454, 449, 460, 456, 461, 463, 459, 469, 465, 470, 472, 468, 478, 473, 479, 481, 475, 484, 478, 483, 485, 481, 488, 508, 564, 581, 576, 561, 515, 484, 472, 465, 474, 469, 476, 477, 452, 511, 881, 1023, 1023, 375, 329, 419, 443, 445, 446, 459, 460, 474, 486, 492, 509, 
508, 519, 532, 556, 585, 592, 591, 567, 526, 480, 428, 425, 431, 428, 440, 436, 443, 444, 443, 451, 446, 452, 455, 451, 460, 456, 463, 464, 460, 470, 463, 468, 474, 471, 477, 465, 478, 479, 476, 484, 478, 484, 484, 480, 490, 524, 571, 584, 572, 549, 500, 480, 472, 465, 476, 470, 477, 476, 447, 572, 1023, 1023, 828, 304, 361, 430, 444, 448, 449, 460, 461, 480, 489, 495, 511, 508, 522, 540, 564, 590, 592, 584, 558, 515, 465, 423, 430, 430, 432, 440, 435, 443, 444, 443, 452, 445, 454, 454, 453, 464, 
456, 464, 464, 461, 471, 465, 472, 472, 469, 477, 472, 480, 479, 477, 484, 477, 484, 482, 481, 495, 538, 574, 582, 567, 541, 491, 477, 464, 468, 477, 468, 479, 472, 452, 667, 1023, 1023, 648, 287, 391, 436, 446, 449, 449, 460, 464, 482, 492, 497, 511, 509, 525, 548, 568, 596, 591, 580, 548, 500, 452, 418, 432, 432, 433, 441, 433, 441, 443, 444, 452, 445, 456, 455, 452, 462, 455, 465, 463, 464, 472, 464, 473, 472, 472, 479, 471, 480, 476, 477, 485, 478, 485, 484, 482, 504, 549, 579, 580, 559, 529, 
482, 475, 468, 468, 476, 470, 479, 461, 468, 775, 1023, 1023, 482, 300, 412, 439, 448, 448, 452, 463, 468, 484, 491, 500, 513, 510, 529, 555, 575, 598, 588, 576, 537, 485, 443, 417, 430, 430, 432, 439, 435, 445, 443, 444, 452, 447, 454, 453, 455, 462, 455, 465, 464, 465, 472, 464, 475, 470, 472, 479, 471, 480, 477, 479, 484, 477, 485, 483, 484, 520, 559, 583, 578, 554, 519, 477, 474, 468, 469, 476, 469, 479, 452, 516, 921, 1023, 1006, 362, 330, 429, 438, 449, 450, 453, 466, 469, 489, 495, 505, 516, 
515, 535, 560, 581, 598, 583, 570, 526, 474, 435, 420, 433, 429, 434, 441, 436, 444, 442, 446, 452, 448, 456, 453, 458, 462, 456, 465, 460, 464, 472, 465, 476, 469, 471, 479, 473, 483, 477, 479, 485, 477, 488, 482, 484, 532, 565, 586, 572, 544, 507, 475, 476, 468, 468, 476, 471, 478, 448, 581, 1023, 1023, 810, 301, 362, 439, 440, 452, 450, 456, 470, 473, 493, 496, 507, 516, 516, 544, 564, 588, 598, 578, 560, 511, 459, 428, 422, 435, 430, 436, 442, 435, 447, 442, 446, 452, 448, 459, 452, 458, 461, 
456, 468, 463, 467, 470, 466, 476, 469, 473, 476, 472, 484, 476, 481, 484, 480, 487, 484, 491, 543, 568, 587, 566, 533, 496, 468, 473, 468, 472, 475, 470, 474, 451, 674, 1023, 1023, 627, 285, 389, 442, 439, 452, 451, 459, 472, 476, 495, 498, 508, 517, 518, 553, 568, 592, 596, 573, 552, 497, 448, 426, 423, 435, 429, 436, 439, 439, 446, 443, 450, 453, 448, 461, 452, 458, 460, 459, 468, 461, 468, 471, 468, 477, 468, 476, 477, 472, 484, 476, 479, 484, 480, 490, 481, 501, 557, 572, 584, 559, 526, 488, 
469, 474, 466, 473, 474, 472, 465, 471, 788, 1023, 1023, 470, 303, 412, 444, 441, 455, 450, 461, 474, 478, 496, 500, 511, 517, 525, 562, 574, 596, 592, 568, 543, 484, 436, 424, 425, 436, 432, 437, 441, 440, 450, 444, 451, 454, 450, 460, 455, 460, 462, 460, 468, 461, 468, 471, 468, 477, 470, 476, 476, 475, 484, 477, 481, 482, 480, 490, 483, 518, 563, 576, 583, 549, 515, 481, 467, 474, 467, 473, 475, 472, 456, 519, 940, 1023, 979, 360, 332, 428, 444, 443, 454, 452, 464, 476, 483, 501, 503, 516, 521, 
529, 567, 578, 596, 587, 559, 532, 468, 432, 424, 427, 436, 432, 440, 441, 438, 451, 444, 452, 452, 450, 460, 455, 461, 462, 459, 468, 462, 468, 470, 467, 476, 470, 478, 476, 475, 484, 476, 484, 483, 480, 489, 484, 535, 570, 580, 580, 541, 506, 476, 467, 475, 470, 472, 475, 472, 458, 586, 1023, 1023, 779, 304, 361, 438, 441, 444, 457, 452, 468, 476, 484, 502, 504, 515, 521, 537, 572, 584, 598, 582, 551, 517, 452, 426, 424, 426, 437, 432, 441, 439, 440, 450, 444, 452, 451, 451, 461, 453, 462, 461, 
460, 469, 464, 470, 469, 468, 476, 472, 479, 477, 475, 484, 476, 483, 480, 479, 488, 488, 546, 573, 576, 572, 529, 496, 473, 466, 475, 468, 476, 476, 467, 461, 683, 1023, 1023, 594, 295, 388, 444, 442, 446, 459, 455, 472, 479, 488, 505, 503, 517, 523, 547, 575, 586, 595, 575, 542, 502, 444, 424, 426, 428, 436, 430, 441, 441, 441, 449, 443, 452, 451, 451, 460, 455, 464, 463, 461, 469, 464, 473, 470, 468, 477, 471, 480, 479, 477, 484, 476, 484, 484, 481, 489, 500, 561, 577, 580, 565, 519, 489, 470, 
467, 475, 469, 477, 476, 459, 484, 801, 1023, 1023, 446, 311, 410, 445, 444, 442, 457, 457, 476, 482, 492, 508, 506, 519, 526, 556, 583, 591, 595, 570, 534, 488, 432, 425, 427, 428, 436, 432, 442, 440, 440, 451, 444, 454, 451, 452, 460, 452, 463, 463, 463, 471, 462, 471, 470, 471, 477, 472, 480, 476, 476, 485, 476, 485, 483, 481, 489, 513, 568, 580, 576, 559, 508, 484, 472, 467, 474, 468, 479, 476, 450, 532, 952, 1023, 956, 342, 340, 425, 444, 444, 444, 459, 459, 488, 493, 493, 508, 507, 523, 532, 
562, 588, 592, 588, 563, 522, 475, 426, 429, 430, 431, 438, 432, 444, 441, 442, 450, 446, 456, 454, 454, 462, 455, 464, 462, 465, 471, 463, 473, 469, 469, 477, 470, 480, 478, 477, 484, 476, 484, 482, 481, 490, 529, 574, 583, 572, 547, 497, 478, 467, 467, 476, 467, 477, 471, 444, 604, 1023, 1023, 756, 296, 372, 435, 446, 446, 453, 461, 464, 482, 491, 500, 514, 510, 528, 540, 568, 592, 592, 584, 554, 511, 461, 420, 429, 430, 432, 439, 432, 443, 443, 444, 451, 444, 456, 453, 454, 462, 458, 465, 464, 
464, 471, 465, 473, 471, 473, 479, 473, 480, 476, 478, 484, 478, 487, 483, 484, 497, 542, 577, 580, 566, 537, 486, 477, 468, 469, 478, 469, 480, 467, 458, 700, 1023, 1023, 579, 289, 398, 436, 448, 449, 453, 464, 466, 485, 488, 500, 512, 510, 528, 551, 572, 591, 589, 579, 543, 497, 451, 418, 432, 430, 432, 440, 435, 445, 443, 445, 451, 447, 455, 452, 456, 461, 453, 463, 460, 463, 470, 464, 473, 469, 473, 480, 472, 481, 475, 479, 484, 477, 485, 481, 484, 508, 553, 580, 580, 557, 524, 479, 475, 467, 
470, 476, 468, 478, 458, 484, 